# Version 1.00
#
# Ref Impedances: Z01: 50, Z02: 50
# 
freq[Hz]	db:Trc9_S21	ang:Trc9_S21	
5.000000000000000E+005	-2.685995418711082E+001	1.159041260201337E+002	
5.032761480982608E+005	-2.676578580353962E+001	1.155078381577919E+002	
5.065737624892451E+005	-2.667117510059916E+001	1.151316833598802E+002	
5.098929838264610E+005	-2.657384300130136E+001	1.147393002817503E+002	
5.132339536850202E+005	-2.648107296617001E+001	1.143308485775310E+002	
5.165968145676763E+005	-2.638572834306088E+001	1.139375212451044E+002	
5.199817099109033E+005	-2.629444161614532E+001	1.135449133192976E+002	
5.233887840910133E+005	-2.620082762044406E+001	1.131459483593610E+002	
5.268181824303150E+005	-2.609575119451662E+001	1.127416479692411E+002	
5.302700512033115E+005	-2.600161235013033E+001	1.123389311513637E+002	
5.337445376429403E+005	-2.590845291353268E+001	1.119196762627651E+002	
5.372417899468524E+005	-2.581831021954132E+001	1.115126158399285E+002	
5.407619572837337E+005	-2.572340732448004E+001	1.111004504645939E+002	
5.443051897996675E+005	-2.562924023225977E+001	1.106979202147877E+002	
5.478716386245388E+005	-2.553589029837228E+001	1.102771672367768E+002	
5.514614558784805E+005	-2.544474634747471E+001	1.098630470484527E+002	
5.550747946783613E+005	-2.533766456774348E+001	1.094171017980946E+002	
5.587118091443173E+005	-2.524302253813761E+001	1.090060715334695E+002	
5.623726544063253E+005	-2.514924569594620E+001	1.085665316670139E+002	
5.660574866108197E+005	-2.506351406207581E+001	1.081456520681619E+002	
5.697664629273524E+005	-2.497412920299885E+001	1.077265545837888E+002	
5.734997415552969E+005	-2.488129294176896E+001	1.072971460750737E+002	
5.772574817305958E+005	-2.479018464328702E+001	1.068493650074867E+002	
5.810398437325528E+005	-2.470115178286582E+001	1.064106249081547E+002	
5.848469888906692E+005	-2.460627110130984E+001	1.059644013721869E+002	
5.886790795915247E+005	-2.450899656209879E+001	1.054928151787175E+002	
5.925362792857041E+005	-2.441979291333339E+001	1.050400114113013E+002	
5.964187524947689E+005	-2.433241181732334E+001	1.046259135104929E+002	
6.003266648182746E+005	-2.424586944957758E+001	1.041997045160195E+002	
6.042601829408339E+005	-2.415291866909504E+001	1.037492712739557E+002	
6.082194746392266E+005	-2.406179022534029E+001	1.033093435480142E+002	
6.122047087895556E+005	-2.397390456415977E+001	1.028530962485835E+002	
6.162160553744501E+005	-2.388089567486454E+001	1.023889916814325E+002	
6.202536854903157E+005	-2.378375946594121E+001	1.018854012689673E+002	
6.243177713546323E+005	-2.369612474013294E+001	1.014322629222442E+002	
6.284084863133002E+005	-2.360463910022943E+001	1.009750880588252E+002	
6.325260048480327E+005	-2.352104583535894E+001	1.005548960738021E+002	
6.366705025837995E+005	-2.343269936670956E+001	1.000834844882798E+002	
6.408421562963169E+005	-2.334448345732998E+001	9.962903821369487E+001	
6.450411439195880E+005	-2.325400889529483E+001	9.915335992457095E+001	
6.492676445534922E+005	-2.317427024767077E+001	9.877583187811769E+001	
6.535218384714247E+005	-2.308428975726852E+001	9.830375662297492E+001	
6.578039071279848E+005	-2.298813756956909E+001	9.779223381833793E+001	
6.621140331667166E+005	-2.289893194041162E+001	9.732707989991468E+001	
6.664524004278985E+005	-2.281326212814907E+001	9.691008738200057E+001	
6.708191939563849E+005	-2.272616486867695E+001	9.645241624217508E+001	
6.752146000094990E+005	-2.263511067698114E+001	9.598834063776397E+001	
6.796388060649771E+005	-2.254655440360093E+001	9.549953693130449E+001	
6.840920008289651E+005	-2.245131947383391E+001	9.507093419304546E+001	
6.885743742440676E+005	-2.236870322609541E+001	9.463349516914987E+001	
6.930861174974493E+005	-2.226503807456014E+001	9.397988538953423E+001	
6.976274230289898E+005	-2.218575717607499E+001	9.356160483444972E+001	
7.021984845394918E+005	-2.208487496576003E+001	9.309523602251541E+001	
7.067994969989432E+005	-2.200760642768193E+001	9.269047379548908E+001	
7.114306566548328E+005	-2.191258528061694E+001	9.216954817874655E+001	
7.160921610405211E+005	-2.182085198867878E+001	9.175493894829488E+001	
7.207842089836659E+005	-2.172392498220781E+001	9.127178661016583E+001	
7.255070006147025E+005	-2.164249093865281E+001	9.084672606201607E+001	
7.302607373753800E+005	-2.154411529709502E+001	9.032946243055807E+001	
7.350456220273539E+005	-2.145431893056257E+001	8.989057439718569E+001	
7.398618586608336E+005	-2.136082529044512E+001	8.939783289337522E+001	
7.447096527032884E+005	-2.126929077195993E+001	8.894891922281421E+001	
7.495892109282091E+005	-2.117416902835284E+001	8.845348118746179E+001	
7.545007414639277E+005	-2.108301463092572E+001	8.792875467907149E+001	
7.594444538024946E+005	-2.097978509557912E+001	8.748952516486038E+001	
7.644205588086142E+005	-2.088902475135021E+001	8.695995967294857E+001	
7.694292687286388E+005	-2.079364404373664E+001	8.642580912341056E+001	
7.744707971996219E+005	-2.069513669071262E+001	8.575037960966762E+001	
7.795453592584301E+005	-2.060512921089796E+001	8.525085300164007E+001	
7.846531713509152E+005	-2.049702851085842E+001	8.468375755975474E+001	
7.897944513411465E+005	-2.041346827899954E+001	8.422265839132241E+001	
7.949694185207030E+005	-2.031258871672317E+001	8.367461208488385E+001	
8.001782936180272E+005	-2.021099274752255E+001	8.320081750713233E+001	
8.054212988078399E+005	-2.010767328958070E+001	8.265843763006491E+001	
8.106986577206160E+005	-2.000159543761178E+001	8.220337478445273E+001	
8.160105954521240E+005	-1.990229791311927E+001	8.162279565718306E+001	
8.213573385730264E+005	-1.980888715633941E+001	8.100044770081385E+001	
8.267391151385435E+005	-1.969671793819284E+001	8.045919527451073E+001	
8.321561546981814E+005	-1.958820806577031E+001	7.988314309555373E+001	
8.376086883055224E+005	-1.948810456107848E+001	7.933520736153761E+001	
8.430969485280803E+005	-1.939614254957914E+001	7.882998872899223E+001	
8.486211694572198E+005	-1.926779732349893E+001	7.816324712194867E+001	
8.541815867181420E+005	-1.918803117413121E+001	7.758963424254765E+001	
8.597784374799342E+005	-1.908147215820224E+001	7.711574738427854E+001	
8.654119604656852E+005	-1.895307223093930E+001	7.639892882446246E+001	
8.710823959626689E+005	-1.884160991894496E+001	7.584410606881824E+001	
8.767899858325921E+005	-1.872664933131118E+001	7.518631898623870E+001	
8.825349735219113E+005	-1.860947090045341E+001	7.449356871370488E+001	
8.883176040722162E+005	-1.851263195835096E+001	7.385217265386990E+001	
8.941381241306819E+005	-1.838905089611024E+001	7.325326225516481E+001	
8.999967819605883E+005	-1.825315766391853E+001	7.256114616537762E+001	
9.058938274519104E+005	-1.815141099285091E+001	7.188261076309908E+001	
9.118295121319760E+005	-1.801883724412025E+001	7.116322891329004E+001	
9.178040891761945E+005	-1.790088778094516E+001	7.049375753827515E+001	
9.238178134188557E+005	-1.776611389613699E+001	6.971814975614186E+001	
9.298709413639989E+005	-1.764271305786518E+001	6.889879646679151E+001	
9.359637311963543E+005	-1.751206084571978E+001	6.823044364807434E+001	
9.420964427923544E+005	-1.738046588759460E+001	6.739006349299970E+001	
9.482693377312193E+005	-1.724020502860777E+001	6.654744508241222E+001	
9.544826793061136E+005	-1.709007914434408E+001	6.573748861678926E+001	
9.607367325353769E+005	-1.695264093935577E+001	6.492727998444806E+001	
9.670317641738271E+005	-1.683603967731510E+001	6.373805933761406E+001	
9.733680427241389E+005	-1.666075026413544E+001	6.308029742293389E+001	
9.797458384482961E+005	-1.652167206473162E+001	6.192628829889291E+001	
9.861654233791188E+005	-1.637708857665446E+001	6.103135300201669E+001	
9.926270713318669E+005	-1.625244861547162E+001	6.003976561569015E+001	
9.991310579159191E+005	-1.608145472621414E+001	5.893314573961320E+001	
1.005677660546528E+006	-1.591813484847476E+001	5.800748700243162E+001	
1.012267158456654E+006	-1.576778450737361E+001	5.672773081949246E+001	
1.018899832708873E+006	-1.562712475968845E+001	5.530476165173195E+001	
1.025575966207368E+006	-1.545886724320988E+001	5.429846905732575E+001	
1.032295843709993E+006	-1.525069002655014E+001	5.244972338496041E+001	
1.039059751840419E+006	-1.513750375879469E+001	5.148431322653865E+001	
1.045867979100362E+006	-1.491648432336141E+001	4.994176146228792E+001	
1.052720815881885E+006	-1.495609255216855E+001	4.941135317423279E+001	
1.059618554479787E+006	-1.475011673982859E+001	4.733174722507218E+001	
1.066561489104068E+006	-1.447718947488417E+001	4.611132899710268E+001	
1.073549915892481E+006	-1.438624784462419E+001	4.489543831015526E+001	
1.080584132923160E+006	-1.418092156226205E+001	4.281680844190490E+001	
1.087664440227334E+006	-1.398294154810256E+001	4.134772714870392E+001	
1.094791139802127E+006	-1.372702246713221E+001	3.917514766935898E+001	
1.101964535623438E+006	-1.355544412212584E+001	3.728720409272763E+001	
1.109184933658906E+006	-1.336281642685666E+001	3.453706530634199E+001	
1.116452641880958E+006	-1.315342791235818E+001	3.232676151368376E+001	
1.123767970279951E+006	-1.303533769042591E+001	2.903795518433785E+001	
1.131131230877389E+006	-1.286638909123625E+001	2.565730608830070E+001	
1.138542737739234E+006	-1.301969766377961E+001	2.330113632031733E+001	
1.146002806989300E+006	-1.271661706510970E+001	2.090433787580508E+001	
1.153511756822739E+006	-1.258737983974160E+001	1.808397745394071E+001	
1.161069907519612E+006	-1.260611500129563E+001	1.353516253207091E+001	
1.168677581458549E+006	-1.272816312534383E+001	1.260011493688659E+001	
1.176335103130500E+006	-1.239224393929409E+001	7.350267883118717E+000	
1.184042799152576E+006	-1.253207103711877E+001	5.371003063761084E+000	
1.191800998281983E+006	-1.242388506840743E+001	1.394375124537910E+000	
1.199610031430037E+006	-1.229599288356774E+001	-2.098977552673185E+000	
1.207470231676285E+006	-1.266940322363251E+001	-7.808236595805735E+000	
1.215381934282710E+006	-1.235752072905621E+001	-1.208505898104441E+001	
1.223345476708032E+006	-1.265734168166791E+001	-1.705877516993933E+001	
1.231361198622098E+006	-1.294957878023456E+001	-2.026567561319866E+001	
1.239429441920374E+006	-1.335834421927776E+001	-2.429791563918458E+001	
1.247550550738526E+006	-1.372682110832642E+001	-2.770832524095324E+001	
1.255724871467098E+006	-1.429197442862714E+001	-3.233385505327651E+001	
1.263952752766290E+006	-1.433492551052098E+001	-3.362143669678642E+001	
1.272234545580823E+006	-1.449412827275702E+001	-3.947426966339014E+001	
1.280570603154916E+006	-1.504964311581623E+001	-4.333416762794975E+001	
1.288961281047345E+006	-1.569135970298068E+001	-4.758518791278292E+001	
1.297406937146615E+006	-1.621964718497520E+001	-4.979772314835899E+001	
1.305907931686222E+006	-1.673450902896800E+001	-5.375898712858644E+001	
1.314464627260017E+006	-1.738413473076299E+001	-5.586730673474617E+001	
1.323077388837675E+006	-1.812733468510537E+001	-5.892333187303440E+001	
1.331746583780260E+006	-1.870986609941636E+001	-6.118008080892449E+001	
1.340472581855894E+006	-1.941883797744933E+001	-6.296042812034434E+001	
1.349255755255530E+006	-2.008079974022337E+001	-6.547463566512516E+001	
1.358096478608826E+006	-2.076730108568320E+001	-6.698924479321894E+001	
1.366995129000124E+006	-2.161398076307777E+001	-6.937654140637999E+001	
1.375952085984535E+006	-2.240109529601441E+001	-7.056486978036097E+001	
1.384967731604127E+006	-2.326422619634813E+001	-7.196699530711443E+001	
1.394042450404222E+006	-2.400171820232843E+001	-7.184831618424127E+001	
1.403176629449796E+006	-2.499728596500839E+001	-7.295713769096695E+001	
1.412370658341988E+006	-2.570284894254429E+001	-7.401089220085318E+001	
1.421624929234721E+006	-2.652182151932300E+001	-7.382543388532881E+001	
1.430939836851426E+006	-2.739975143976379E+001	-7.430062588423840E+001	
1.440315778501879E+006	-2.847022737099565E+001	-7.555286433663591E+001	
1.449753154099146E+006	-2.966765233726186E+001	-7.506214177572953E+001	
1.459252366176646E+006	-3.083898635166383E+001	-7.403951593437421E+001	
1.468813819905310E+006	-3.218991954878601E+001	-7.316901534656078E+001	
1.478437923110874E+006	-3.362948579596939E+001	-7.062287410913275E+001	
1.488125086291267E+006	-3.516766405627202E+001	-6.645422494403522E+001	
1.497875722634121E+006	-3.678935643970316E+001	-6.190183719068902E+001	
1.507690248034399E+006	-3.880640313405500E+001	-5.385270782408756E+001	
1.517569081112128E+006	-4.064098054058186E+001	-4.085337903751415E+001	
1.527512643230257E+006	-4.156930008817064E+001	-2.151346684360023E+001	
1.537521358512634E+006	-4.215242968282279E+001	-5.112870448467951E+000	
1.547595653862087E+006	-4.109243122656413E+001	1.528032888834849E+001	
1.557735958978641E+006	-4.009996441978514E+001	2.630471189375905E+001	
1.567942706377842E+006	-3.868285065233163E+001	3.728325206733814E+001	
1.578216331409205E+006	-3.715261392514048E+001	4.246699512272550E+001	
1.588557272274786E+006	-3.600980868180920E+001	4.679751589912705E+001	
1.598965970047869E+006	-3.505427965939709E+001	5.075437498068896E+001	
1.609442868691781E+006	-3.414004054988406E+001	5.255253159272965E+001	
1.619988415078829E+006	-3.330198277080972E+001	5.482803915760938E+001	
1.630603059009359E+006	-3.247420355991855E+001	5.589191045650320E+001	
1.641287253230943E+006	-3.175564810494891E+001	5.657060140633254E+001	
1.652041453457688E+006	-3.112066670753614E+001	5.731351682159199E+001	
1.662866118389675E+006	-3.053529372206999E+001	5.735956990756901E+001	
1.673761709732524E+006	-3.004504240202191E+001	5.757103176838452E+001	
1.684728692217088E+006	-2.955874806750912E+001	5.753916783419424E+001	
1.695767533619273E+006	-2.910770086042682E+001	5.767607733613885E+001	
1.706878704779991E+006	-2.869131549967677E+001	5.748026033288870E+001	
1.718062679625245E+006	-2.833062396483641E+001	5.713537490607276E+001	
1.729319935186339E+006	-2.794527042628106E+001	5.701012931456655E+001	
1.740650951620230E+006	-2.763406754276073E+001	5.656999336728530E+001	
1.752056212230003E+006	-2.737448931486406E+001	5.620463016715895E+001	
1.763536203485489E+006	-2.706274519586567E+001	5.610955187749509E+001	
1.775091415044016E+006	-2.678777605831724E+001	5.553470409707443E+001	
1.786722339771287E+006	-2.657726422411206E+001	5.542395836181281E+001	
1.798429473762410E+006	-2.634540572831147E+001	5.527103518663954E+001	
1.810213316363056E+006	-2.606228128820959E+001	5.501723596147940E+001	
1.822074370190755E+006	-2.584933553463833E+001	5.446734097454359E+001	
1.834013141156335E+006	-2.565003860576086E+001	5.452292320248535E+001	
1.846030138485505E+006	-2.542419770384526E+001	5.420127042116899E+001	
1.858125874740568E+006	-2.519503752606264E+001	5.399716387050613E+001	
1.870300865842289E+006	-2.501452767915228E+001	5.348900569345077E+001	
1.882555631091898E+006	-2.478184992679548E+001	5.320191094745611E+001	
1.894890693193242E+006	-2.457478794462949E+001	5.253013533473202E+001	
1.907306578275076E+006	-2.441201897801109E+001	5.226702442477004E+001	
1.919803815913509E+006	-2.422509597136237E+001	5.152955273690483E+001	
1.932382939154587E+006	-2.407753059124176E+001	5.104892439717052E+001	
1.945044484537033E+006	-2.390030392847358E+001	5.030952036706835E+001	
1.957788992115130E+006	-2.380662000354294E+001	4.980627012372133E+001	
1.970617005481758E+006	-2.366517725334724E+001	4.949061472298470E+001	
1.983529071791577E+006	-2.354033861142436E+001	4.887049798604966E+001	
1.996525741784367E+006	-2.339050731615619E+001	4.852359548703738E+001	
2.009607569808519E+006	-2.329932854235777E+001	4.769951791478609E+001	
2.022775113844676E+006	-2.320076034291033E+001	4.745712064244469E+001	
2.036028935529539E+006	-2.310730676020878E+001	4.708754345975191E+001	
2.049369600179817E+006	-2.296058916511246E+001	4.683779008311617E+001	
2.062797676816343E+006	-2.284804880438390E+001	4.627846810174699E+001	
2.076313738188340E+006	-2.275655605335541E+001	4.538028057307776E+001	
2.089918360797857E+006	-2.272013082826352E+001	4.528162025027295E+001	
2.103612124924354E+006	-2.258857916990291E+001	4.484940656628116E+001	
2.117395614649452E+006	-2.258320674104149E+001	4.424538252848846E+001	
2.131269417881852E+006	-2.241574529031269E+001	4.428697284206823E+001	
2.145234126382402E+006	-2.226927269445548E+001	4.370253653863290E+001	
2.159290335789346E+006	-2.221765465370268E+001	4.317640227239283E+001	
2.173438645643724E+006	-2.211360169922200E+001	4.253754207396847E+001	
2.187679659414948E+006	-2.206800161318585E+001	4.249586721485527E+001	
2.202013984526541E+006	-2.201759347344063E+001	4.123681416286392E+001	
2.216442232382041E+006	-2.195565866447193E+001	4.132612440763613E+001	
2.230965018391088E+006	-2.187689033727196E+001	4.138043625176574E+001	
2.245582961995665E+006	-2.175601111106063E+001	4.102297203090677E+001	
2.260296686696523E+006	-2.168858927226479E+001	4.059215921777983E+001	
2.275106820079775E+006	-2.155930749169374E+001	4.004808299646585E+001	
2.290013993843664E+006	-2.150049414151937E+001	3.918289375569224E+001	
2.305018843825507E+006	-2.145560808129414E+001	3.893547242330520E+001	
2.320122010028816E+006	-2.131330338932381E+001	3.744956753199408E+001	
2.335324136650594E+006	-2.128426115414709E+001	3.712843600754331E+001	
2.350625872108815E+006	-2.144797358264451E+001	3.665971431510202E+001	
2.366027869070079E+006	-2.143272396259314E+001	3.708090125945138E+001	
2.381530784477451E+006	-2.135801969509694E+001	3.711532066816606E+001	
2.397135279578482E+006	-2.138498257795864E+001	3.525499587116826E+001	
2.412842019953412E+006	-2.147238910058797E+001	3.582063834001792E+001	
2.428651675543560E+006	-2.153955622002563E+001	3.543862176244308E+001	
2.444564920679900E+006	-2.143389609060668E+001	3.603439127862774E+001	
2.460582434111821E+006	-2.128158249894224E+001	3.678364601044760E+001	
2.476704899036080E+006	-2.116956374455510E+001	3.715855213943087E+001	
2.492933003125940E+006	-2.106641301110353E+001	3.702876355188845E+001	
2.509267438560506E+006	-2.097333833841791E+001	3.669996824011724E+001	
2.525708902054241E+006	-2.092461801991512E+001	3.652770950947883E+001	
2.542258094886692E+006	-2.077217140875048E+001	3.658701652684791E+001	
2.558915722932395E+006	-2.066738404170616E+001	3.622892568656274E+001	
2.575682496690984E+006	-2.057760166627267E+001	3.602626485988574E+001	
2.592559131317500E+006	-2.045555848146002E+001	3.554864869888857E+001	
2.609546346652889E+006	-2.046021145690654E+001	3.505823020483893E+001	
2.626644867254709E+006	-2.035649054131194E+001	3.525333796730769E+001	
2.643855422428036E+006	-2.024231462535627E+001	3.502883375384702E+001	
2.661178746256564E+006	-2.011388100628347E+001	3.440553292072803E+001	
2.678615577633925E+006	-2.003303717298432E+001	3.405861039411374E+001	
2.696166660295199E+006	-1.992237492788506E+001	3.352823583310669E+001	
2.713832742848640E+006	-1.983581307857016E+001	3.296073827283144E+001	
2.731614578807603E+006	-1.976857471083200E+001	3.227112585182717E+001	
2.749512926622687E+006	-1.968387962881928E+001	3.171431642936409E+001	
2.767528549714084E+006	-1.964113771462043E+001	3.123746637029542E+001	
2.785662216504141E+006	-1.961156984708665E+001	3.106375351604271E+001	
2.803914700450135E+006	-1.953323423810230E+001	3.058286531370236E+001	
2.822286780077266E+006	-1.945638493431342E+001	3.029046249006704E+001	
2.840779239011859E+006	-1.936956537602814E+001	2.979032581211807E+001	
2.859392866014794E+006	-1.928276332821100E+001	2.918603619368221E+001	
2.878128455015144E+006	-1.922422542778694E+001	2.852456085126557E+001	
2.896986805144040E+006	-1.917487034467138E+001	2.819284169789939E+001	
2.915968720768759E+006	-1.909950018216786E+001	2.764036467829858E+001	
2.935075011527028E+006	-1.906467479774258E+001	2.705715573903200E+001	
2.954306492361563E+006	-1.900364229921949E+001	2.651827151272840E+001	
2.973663983554823E+006	-1.895826649823409E+001	2.607233235272562E+001	
2.993148310764003E+006	-1.888975340498989E+001	2.559694850724491E+001	
3.012760305056247E+006	-1.883047801418161E+001	2.508323849538602E+001	
3.032500802944099E+006	-1.878247528697153E+001	2.449848172710608E+001	
3.052370646421178E+006	-1.874323400448974E+001	2.392402449114665E+001	
3.072370682998098E+006	-1.868516055846877E+001	2.344054545814901E+001	
