# Version 1.00
#
# Ref Impedances: Z01: 50, Z02: 50
# 
freq[Hz]	db:Trc9_S21	ang:Trc9_S21	
5.000000000000000E+005	-2.628335574779825E+001	1.147852337597830E+002	
5.032761480982608E+005	-2.620759257551054E+001	1.142472121036786E+002	
5.065737624892451E+005	-2.612589703561519E+001	1.137035440851242E+002	
5.098929838264610E+005	-2.604553776168753E+001	1.131883431318926E+002	
5.132339536850202E+005	-2.597113336164869E+001	1.126535478270318E+002	
5.165968145676763E+005	-2.589562932037827E+001	1.121591187251797E+002	
5.199817099109033E+005	-2.582044939613157E+001	1.116661442495856E+002	
5.233887840910133E+005	-2.574415299885658E+001	1.111675255017027E+002	
5.268181824303150E+005	-2.566894424242099E+001	1.106664663986174E+002	
5.302700512033115E+005	-2.567561269092189E+001	1.107405607789562E+002	
5.337445376429403E+005	-2.552191019679749E+001	1.097246471734096E+002	
5.372417899468524E+005	-2.545642407276647E+001	1.093489087534289E+002	
5.407619572837337E+005	-2.537598550632491E+001	1.087906178087438E+002	
5.443051897996675E+005	-2.530412164049487E+001	1.083563842237897E+002	
5.478716386245388E+005	-2.523338333942600E+001	1.079336765026917E+002	
5.514614558784805E+005	-2.517039979082566E+001	1.077091617071555E+002	
5.550747946783613E+005	-2.508656607238426E+001	1.070838874095965E+002	
5.587118091443173E+005	-2.504136683120536E+001	1.072960067203108E+002	
5.623726544063253E+005	-2.493491561934690E+001	1.062228003226102E+002	
5.660574866108197E+005	-2.485877084062766E+001	1.058406808610694E+002	
5.697664629273524E+005	-2.478510400723285E+001	1.054117176671864E+002	
5.734997415552969E+005	-2.470608304085083E+001	1.050087747396162E+002	
5.772574817305958E+005	-2.462884553139520E+001	1.046103409300749E+002	
5.810398437325528E+005	-2.455017001842321E+001	1.042001662109465E+002	
5.848469888906692E+005	-2.447092380469548E+001	1.037901845668047E+002	
5.886790795915247E+005	-2.438946857836660E+001	1.033729992015995E+002	
5.925362792857041E+005	-2.431123552669714E+001	1.029838597015034E+002	
5.964187524947689E+005	-2.423203498351961E+001	1.025774378080179E+002	
6.003266648182746E+005	-2.415128120162872E+001	1.022134618486039E+002	
6.042601829408339E+005	-2.406738452762683E+001	1.017736959238090E+002	
6.082194746392266E+005	-2.398384224530760E+001	1.013574519170857E+002	
6.122047087895556E+005	-2.390255965315378E+001	1.009514240165644E+002	
6.162160553744501E+005	-2.381769257939553E+001	1.005373896806923E+002	
6.202536854903157E+005	-2.373530934960635E+001	1.001182384021141E+002	
6.243177713546323E+005	-2.365333352145430E+001	9.988538179597950E+001	
6.284084863133002E+005	-2.356616899647631E+001	9.929553922436384E+001	
6.325260048480327E+005	-2.347843406009486E+001	9.900812650021211E+001	
6.366705025837995E+005	-2.340116327855878E+001	9.846352885685133E+001	
6.408421562963169E+005	-2.331649940098595E+001	9.804612877485263E+001	
6.450411439195880E+005	-2.322877319249060E+001	9.760139666539362E+001	
6.492676445534922E+005	-2.314506187684024E+001	9.719497125340541E+001	
6.535218384714247E+005	-2.306042118601695E+001	9.677808254361824E+001	
6.578039071279848E+005	-2.297247291413901E+001	9.636903592418418E+001	
6.621140331667166E+005	-2.288481596324960E+001	9.606518207346909E+001	
6.664524004278985E+005	-2.280348577839535E+001	9.551287141189955E+001	
6.708191939563849E+005	-2.271426613429398E+001	9.514184519367102E+001	
6.752146000094990E+005	-2.262566821215615E+001	9.465921483576527E+001	
6.796388060649771E+005	-2.254263283570586E+001	9.416583986741711E+001	
6.840920008289651E+005	-2.244874639944770E+001	9.374341017794646E+001	
6.885743742440676E+005	-2.236813818195851E+001	9.332551327692397E+001	
6.930861174974493E+005	-2.227867730783177E+001	9.286865459873852E+001	
6.976274230289898E+005	-2.219551165724042E+001	9.259573312775497E+001	
7.021984845394918E+005	-2.209889695367002E+001	9.200747272592474E+001	
7.067994969989432E+005	-2.202262261439542E+001	9.156714647772618E+001	
7.114306566548328E+005	-2.192854986938594E+001	9.107560358519420E+001	
7.160921610405211E+005	-2.183904118782579E+001	9.068173490568053E+001	
7.207842089836659E+005	-2.174031284534179E+001	9.022909181244972E+001	
7.255070006147025E+005	-2.166006744681131E+001	8.974196039409702E+001	
7.302607373753800E+005	-2.156261348858050E+001	8.925587389751547E+001	
7.350456220273539E+005	-2.147339056689136E+001	8.886399804508861E+001	
7.398618586608336E+005	-2.137971104538796E+001	8.850223984178398E+001	
7.447096527032884E+005	-2.129104018748389E+001	8.792479473361725E+001	
7.495892109282091E+005	-2.119630127696009E+001	8.743114763217477E+001	
7.545007414639277E+005	-2.110894171284690E+001	8.692816074895838E+001	
7.594444538024946E+005	-2.100678574255690E+001	8.649218805530346E+001	
7.644205588086142E+005	-2.091571899342859E+001	8.599694083129268E+001	
7.694292687286388E+005	-2.082168407225520E+001	8.555048510070135E+001	
7.744707971996219E+005	-2.072445181098468E+001	8.505686435091081E+001	
7.795453592584301E+005	-2.063098164067899E+001	8.464147312843048E+001	
7.846531713509152E+005	-2.052598145490339E+001	8.401015014985326E+001	
7.897944513411465E+005	-2.043766968501262E+001	8.366362627789084E+001	
7.949694185207030E+005	-2.034121858957828E+001	8.299992743337005E+001	
8.001782936180272E+005	-2.024034203330444E+001	8.253811658611230E+001	
8.054212988078399E+005	-2.013597215514414E+001	8.201299761806182E+001	
8.106986577206160E+005	-2.003275224554374E+001	8.145341128622101E+001	
8.160105954521240E+005	-1.993206911790911E+001	8.094569897062111E+001	
8.213573385730264E+005	-1.983439782376270E+001	8.043309291225170E+001	
8.267391151385435E+005	-1.972392078600494E+001	7.985660387168919E+001	
8.321561546981814E+005	-1.961533193379540E+001	7.925965683210077E+001	
8.376086883055224E+005	-1.951257583332431E+001	7.879374124952369E+001	
8.430969485280803E+005	-1.942322313156649E+001	7.822603022983772E+001	
8.486211694572198E+005	-1.929415818272510E+001	7.757952667653750E+001	
8.541815867181420E+005	-1.921568386102003E+001	7.697652869437145E+001	
8.597784374799342E+005	-1.910826503697282E+001	7.651317684101305E+001	
8.654119604656852E+005	-1.897798657630275E+001	7.584100537124307E+001	
8.710823959626689E+005	-1.886660101932297E+001	7.529146419203906E+001	
8.767899858325921E+005	-1.875133957348399E+001	7.463892556811484E+001	
8.825349735219113E+005	-1.863393711615192E+001	7.395357388463835E+001	
8.883176040722162E+005	-1.853743661484671E+001	7.331851058869124E+001	
8.941381241306819E+005	-1.841268880557415E+001	7.272333395911268E+001	
8.999967819605883E+005	-1.827712019659965E+001	7.204486935349316E+001	
9.058938274519104E+005	-1.817411772908103E+001	7.137555959317228E+001	
9.118295121319760E+005	-1.804109221392168E+001	7.066968658576016E+001	
9.178040891761945E+005	-1.792272813225261E+001	7.000702399859796E+001	
9.238178134188557E+005	-1.778981829908855E+001	6.923525935876504E+001	
9.298709413639989E+005	-1.766490989258169E+001	6.841239094688221E+001	
9.359637311963543E+005	-1.753570737326262E+001	6.774102587230891E+001	
9.420964427923544E+005	-1.740600172552805E+001	6.690656211263041E+001	
9.482693377312193E+005	-1.726476201776444E+001	6.606837762167326E+001	
9.544826793061136E+005	-1.711527009670551E+001	6.526307754686339E+001	
9.607367325353769E+005	-1.697583452726570E+001	6.447517282410649E+001	
9.670317641738271E+005	-1.685939665107826E+001	6.331337360714934E+001	
9.733680427241389E+005	-1.668394687086253E+001	6.266716541148210E+001	
9.797458384482961E+005	-1.654556316680935E+001	6.150814896465022E+001	
9.861654233791188E+005	-1.640265793472573E+001	6.062133825657946E+001	
9.926270713318669E+005	-1.627824002741103E+001	5.963523351503121E+001	
9.991310579159191E+005	-1.610770969574747E+001	5.854482384389588E+001	
1.005677660546528E+006	-1.594584444035000E+001	5.762777460278215E+001	
1.012267158456654E+006	-1.579476431507541E+001	5.634809658466820E+001	
1.018899832708873E+006	-1.565200236213246E+001	5.494504795572339E+001	
1.025575966207368E+006	-1.548576167713777E+001	5.395422119753079E+001	
1.032295843709993E+006	-1.527739504081947E+001	5.212272927288773E+001	
1.039059751840419E+006	-1.516540274175069E+001	5.115565216571864E+001	
1.045867979100362E+006	-1.494231703865873E+001	4.963298039745198E+001	
1.052720815881885E+006	-1.497912281200345E+001	4.909986564764696E+001	
1.059618554479787E+006	-1.477541287713230E+001	4.705122768981332E+001	
1.066561489104068E+006	-1.450084996061690E+001	4.582120788084423E+001	
1.073549915892481E+006	-1.440735289627005E+001	4.464812115062097E+001	
1.080584132923160E+006	-1.420196232838664E+001	4.257931991921329E+001	
1.087664440227334E+006	-1.399989899758916E+001	4.112570968685638E+001	
1.094791139802127E+006	-1.374361470158845E+001	3.895137373535111E+001	
1.101964535623438E+006	-1.357082493529453E+001	3.707421681506768E+001	
1.109184933658906E+006	-1.337276972739130E+001	3.437750740651494E+001	
1.116452641880958E+006	-1.316006705240087E+001	3.212266760052671E+001	
1.123767970279951E+006	-1.303218098442142E+001	2.888467568378378E+001	
1.131131230877389E+006	-1.288230901396397E+001	2.534207985570635E+001	
1.138542737739234E+006	-1.302787188316417E+001	2.314986964586884E+001	
1.146002806989300E+006	-1.273853306604261E+001	2.070975539725909E+001	
1.153511756822739E+006	-1.259763441703839E+001	1.790969984942629E+001	
1.161069907519612E+006	-1.260079881565284E+001	1.337627248144460E+001	
1.168677581458549E+006	-1.272251246090291E+001	1.226076438331258E+001	
1.176335103130500E+006	-1.239759034541947E+001	7.130034363698427E+000	
1.184042799152576E+006	-1.253495970184913E+001	5.364447145285983E+000	
1.191800998281983E+006	-1.242485933805153E+001	1.353043480127042E+000	
1.199610031430037E+006	-1.228297081143142E+001	-2.390062974303698E+000	
1.207470231676285E+006	-1.262506757687516E+001	-8.139168354385998E+000	
1.215381934282710E+006	-1.233349945865941E+001	-1.236284160153070E+001	
1.223345476708032E+006	-1.263863318544703E+001	-1.725710133917243E+001	
1.231361198622098E+006	-1.293556060848955E+001	-2.049269807261138E+001	
1.239429441920374E+006	-1.334514135585278E+001	-2.447499331667795E+001	
1.247550550738526E+006	-1.371990528544999E+001	-2.794299711431115E+001	
1.255724871467098E+006	-1.426835891467713E+001	-3.255116735506506E+001	
1.263952752766290E+006	-1.431932738040741E+001	-3.369886448112804E+001	
1.272234545580823E+006	-1.446987429232066E+001	-3.971185475910349E+001	
1.280570603154916E+006	-1.502303343942239E+001	-4.362845373392918E+001	
1.288961281047345E+006	-1.567009403638805E+001	-4.785236251295680E+001	
1.297406937146615E+006	-1.619929702224258E+001	-5.008759746164527E+001	
1.305907931686222E+006	-1.670981342579411E+001	-5.411962943095328E+001	
1.314464627260017E+006	-1.736308910363639E+001	-5.628427389129031E+001	
1.323077388837675E+006	-1.810773802785618E+001	-5.934051019998664E+001	
1.331746583780260E+006	-1.869620768742919E+001	-6.160945767733408E+001	
1.340472581855894E+006	-1.940140583355488E+001	-6.343283913728102E+001	
1.349255755255530E+006	-2.007178322555935E+001	-6.589436000746682E+001	
1.358096478608826E+006	-2.076475524749627E+001	-6.751273216469845E+001	
1.366995129000124E+006	-2.161840057324941E+001	-6.980544681685430E+001	
1.375952085984535E+006	-2.241005429839049E+001	-7.096458645905729E+001	
1.384967731604127E+006	-2.327702632804657E+001	-7.235716622281660E+001	
1.394042450404222E+006	-2.401678217142265E+001	-7.219234864233587E+001	
1.403176629449796E+006	-2.501166528379703E+001	-7.334144110670276E+001	
1.412370658341988E+006	-2.571619145774603E+001	-7.437302469170233E+001	
1.421624929234721E+006	-2.653664193185482E+001	-7.416063910889976E+001	
1.430939836851426E+006	-2.741475461205293E+001	-7.459850088182574E+001	
1.440315778501879E+006	-2.848577673271294E+001	-7.596354229508961E+001	
1.449753154099146E+006	-2.968958463636195E+001	-7.542281466508216E+001	
1.459252366176646E+006	-3.086893078225771E+001	-7.430936256667901E+001	
1.468813819905310E+006	-3.222262550439722E+001	-7.346064406684590E+001	
1.478437923110874E+006	-3.366689781490499E+001	-7.088006232200796E+001	
1.488125086291267E+006	-3.521396914008650E+001	-6.664299909383375E+001	
1.497875722634121E+006	-3.684316532629187E+001	-6.205285222775872E+001	
1.507690248034399E+006	-3.887357494116246E+001	-5.382275197313020E+001	
1.517569081112128E+006	-4.066756156482890E+001	-4.059466918696855E+001	
1.527512643230257E+006	-4.162069262481656E+001	-2.097935962041007E+001	
1.537521358512634E+006	-4.213722511453638E+001	-4.528585451173297E+000	
1.547595653862087E+006	-4.101469288276704E+001	1.584303902537621E+001	
1.557735958978641E+006	-3.999193634895880E+001	2.652960530933126E+001	
1.567942706377842E+006	-3.856366951250029E+001	3.723998704448808E+001	
1.578216331409205E+006	-3.706719856201998E+001	4.237108926289911E+001	
1.588557272274786E+006	-3.592673322772552E+001	4.654976211595468E+001	
1.598965970047869E+006	-3.497745831974314E+001	5.044270354659950E+001	
1.609442868691781E+006	-3.406438832993477E+001	5.219754129606079E+001	
1.619988415078829E+006	-3.323766052536570E+001	5.446097403281897E+001	
1.630603059009359E+006	-3.241244417615523E+001	5.543722203116736E+001	
1.641287253230943E+006	-3.169806512139518E+001	5.608932450611924E+001	
1.652041453457688E+006	-3.106758987813165E+001	5.678241937078515E+001	
1.662866118389675E+006	-3.048510891143905E+001	5.672283704923020E+001	
1.673761709732524E+006	-2.999985636652291E+001	5.697169719627397E+001	
1.684728692217088E+006	-2.952011106996133E+001	5.692716855990700E+001	
1.695767533619273E+006	-2.907036585621331E+001	5.707151705843801E+001	
1.706878704779991E+006	-2.865839845182835E+001	5.682342454919778E+001	
1.718062679625245E+006	-2.830315966390084E+001	5.649217194862789E+001	
1.729319935186339E+006	-2.792057891517363E+001	5.635467622877485E+001	
1.740650951620230E+006	-2.761167314369349E+001	5.590069087420916E+001	
1.752056212230003E+006	-2.735422743829011E+001	5.553138098079232E+001	
1.763536203485489E+006	-2.704735126649473E+001	5.548963277010701E+001	
1.775091415044016E+006	-2.676923359990791E+001	5.492767322490371E+001	
1.786722339771287E+006	-2.656454391112422E+001	5.480645152174193E+001	
1.798429473762410E+006	-2.633641703512442E+001	5.464197827541874E+001	
1.810213316363056E+006	-2.605943660316003E+001	5.439119099831193E+001	
1.822074370190755E+006	-2.585111211706604E+001	5.377413169114925E+001	
1.834013141156335E+006	-2.565710790062551E+001	5.382355019407230E+001	
1.846030138485505E+006	-2.543675228729907E+001	5.348938692736418E+001	
1.858125874740568E+006	-2.521290258998462E+001	5.343240315881390E+001	
1.870300865842289E+006	-2.503317528654090E+001	5.297206327319199E+001	
1.882555631091898E+006	-2.480712069012422E+001	5.269416592364717E+001	
1.894890693193242E+006	-2.460170537603518E+001	5.207169912219838E+001	
1.907306578275076E+006	-2.444191722687235E+001	5.184665600751527E+001	
1.919803815913509E+006	-2.424954638271199E+001	5.118469015992656E+001	
1.932382939154587E+006	-2.409955861364268E+001	5.068618682118700E+001	
1.945044484537033E+006	-2.391967332140387E+001	4.995876447699488E+001	
1.957788992115130E+006	-2.382534274988266E+001	4.939896846566304E+001	
1.970617005481758E+006	-2.367951485835702E+001	4.911122482986082E+001	
1.983529071791577E+006	-2.355465212212425E+001	4.850609018046281E+001	
1.996525741784367E+006	-2.340049164568870E+001	4.816723245813708E+001	
2.009607569808519E+006	-2.330784074256091E+001	4.732534573789693E+001	
2.022775113844676E+006	-2.320481096350964E+001	4.710421456676816E+001	
2.036028935529539E+006	-2.311707696075958E+001	4.665903226653375E+001	
2.049369600179817E+006	-2.296660571748381E+001	4.640767307260704E+001	
2.062797676816343E+006	-2.285548304290365E+001	4.580009029719100E+001	
2.076313738188340E+006	-2.276438577061288E+001	4.487141958883937E+001	
2.089918360797857E+006	-2.273070190859610E+001	4.479211006294414E+001	
2.103612124924354E+006	-2.260110900021804E+001	4.442442672165615E+001	
2.117395614649452E+006	-2.259415283966143E+001	4.374965319647586E+001	
2.131269417881852E+006	-2.243375589979962E+001	4.375297564952216E+001	
2.145234126382402E+006	-2.228760833129354E+001	4.324453384582472E+001	
2.159290335789346E+006	-2.224046633084331E+001	4.261653407985471E+001	
2.173438645643724E+006	-2.213996868841171E+001	4.199332063311474E+001	
2.187679659414948E+006	-2.209751989281188E+001	4.187408046921693E+001	
2.202013984526541E+006	-2.204486495084719E+001	4.074051815717314E+001	
2.216442232382041E+006	-2.198504961781484E+001	4.087570910526817E+001	
2.230965018391088E+006	-2.190235591837030E+001	4.090861642017060E+001	
2.245582961995665E+006	-2.177903132599981E+001	4.058069519564584E+001	
2.260296686696523E+006	-2.170831936828858E+001	4.012661808294597E+001	
2.275106820079775E+006	-2.158101670856021E+001	3.956611997884927E+001	
2.290013993843664E+006	-2.152273864811128E+001	3.867718819098208E+001	
2.305018843825507E+006	-2.148437783696028E+001	3.833977185374231E+001	
2.320122010028816E+006	-2.133507378310564E+001	3.682108517020098E+001	
2.335324136650594E+006	-2.131191283870673E+001	3.655436793042473E+001	
2.350625872108815E+006	-2.147528386067297E+001	3.602613487589684E+001	
2.366027869070079E+006	-2.146534982395932E+001	3.641728322254514E+001	
2.381530784477451E+006	-2.139934600681910E+001	3.652060265748936E+001	
2.397135279578482E+006	-2.142861610891634E+001	3.454197963188627E+001	
2.412842019953412E+006	-2.153769839041813E+001	3.511630148022638E+001	
2.428651675543560E+006	-2.159884031399133E+001	3.473730168405865E+001	
2.444564920679900E+006	-2.151468163608393E+001	3.530024716685870E+001	
2.460582434111821E+006	-2.136226177769372E+001	3.609965882493458E+001	
2.476704899036080E+006	-2.125226394991152E+001	3.657522359567545E+001	
2.492933003125940E+006	-2.114532834302307E+001	3.657596847326045E+001	
2.509267438560506E+006	-2.106221952039970E+001	3.617761709246219E+001	
2.525708902054241E+006	-2.101978479930680E+001	3.602444597188463E+001	
2.542258094886692E+006	-2.087004182369550E+001	3.614641773532273E+001	
2.558915722932395E+006	-2.076673369010626E+001	3.581980568483786E+001	
2.575682496690984E+006	-2.067792975861733E+001	3.566922760194913E+001	
2.592559131317500E+006	-2.055571028982806E+001	3.525718745622397E+001	
2.609546346652889E+006	-2.054420049470172E+001	3.480950792360246E+001	
2.626644867254709E+006	-2.043707323522094E+001	3.506138510556682E+001	
2.643855422428036E+006	-2.032815899661906E+001	3.482177949641957E+001	
2.661178746256564E+006	-2.018976243400427E+001	3.424740361443972E+001	
2.678615577633925E+006	-2.011410540410493E+001	3.388151242603852E+001	
2.696166660295199E+006	-2.000184677904119E+001	3.335453030925650E+001	
2.713832742848640E+006	-1.991428476427518E+001	3.279366072545650E+001	
2.731614578807603E+006	-1.984964762616827E+001	3.209813621667035E+001	
2.749512926622687E+006	-1.976990716477030E+001	3.155615987924811E+001	
2.767528549714084E+006	-1.972787608843780E+001	3.108045276110161E+001	
2.785662216504141E+006	-1.969804958362875E+001	3.091940998296854E+001	
2.803914700450135E+006	-1.961956316906532E+001	3.044332373732681E+001	
2.822286780077266E+006	-1.954351233283928E+001	3.016944506498128E+001	
2.840779239011859E+006	-1.945647846713741E+001	2.968979590145827E+001	
2.859392866014794E+006	-1.936796555042441E+001	2.910355780895006E+001	
2.878128455015144E+006	-1.930701698168464E+001	2.845603935570192E+001	
2.896986805144040E+006	-1.925202908507328E+001	2.813991700096338E+001	
2.915968720768759E+006	-1.917212673959814E+001	2.759895916279121E+001	
2.935075011527028E+006	-1.912174860053718E+001	2.706238994262478E+001	
2.954306492361563E+006	-1.907019342162241E+001	2.650272377706042E+001	
2.973663983554823E+006	-1.902054836259151E+001	2.604563211635862E+001	
2.993148310764003E+006	-1.895063776524547E+001	2.556437358988086E+001	
3.012760305056247E+006	-1.888662660137609E+001	2.504321155388924E+001	
3.032500802944099E+006	-1.883695900790280E+001	2.444562841717001E+001	
3.052370646421178E+006	-1.879529955624907E+001	2.386040309054340E+001	
3.072370682998098E+006	-1.873268445529991E+001	2.336012544989925E+001	
