# Version 1.00
#
# Ref Impedances: Z01: 50, Z02: 50
# 
freq[Hz]	db:Trc9_S21	ang:Trc9_S21	
5.000000000000000E+005	-2.638579413508801E+001	1.153121050015313E+002	
5.032761480982608E+005	-2.627772449826939E+001	1.146884225824700E+002	
5.065737624892451E+005	-2.617446221437390E+001	1.141242933835248E+002	
5.098929838264610E+005	-2.608989670048651E+001	1.136139207530151E+002	
5.132339536850202E+005	-2.601059107299200E+001	1.130984101023380E+002	
5.165968145676763E+005	-2.599720016498123E+001	1.129096825705749E+002	
5.199817099109033E+005	-2.612717368219061E+001	1.135133811589896E+002	
5.233887840910133E+005	-2.602958108204209E+001	1.130498355736836E+002	
5.268181824303150E+005	-2.588464732246191E+001	1.124640137412639E+002	
5.302700512033115E+005	-2.575375471143765E+001	1.117279476735178E+002	
5.337445376429403E+005	-2.552376495565257E+001	1.098535022014085E+002	
5.372417899468524E+005	-2.545060026657245E+001	1.093762235028182E+002	
5.407619572837337E+005	-2.537750934489865E+001	1.089165191310856E+002	
5.443051897996675E+005	-2.531414348785585E+001	1.087232919812284E+002	
5.478716386245388E+005	-2.523303300928728E+001	1.081794838950577E+002	
5.514614558784805E+005	-2.516113111214103E+001	1.077358592103106E+002	
5.550747946783613E+005	-2.509021060687328E+001	1.073558471173027E+002	
5.587118091443173E+005	-2.500705442467698E+001	1.069125961804607E+002	
5.623726544063253E+005	-2.493205547943411E+001	1.065023617471581E+002	
5.660574866108197E+005	-2.485453770754944E+001	1.060838377461424E+002	
5.697664629273524E+005	-2.477970321406945E+001	1.056572576108206E+002	
5.734997415552969E+005	-2.470119039452017E+001	1.052171143567731E+002	
5.772574817305958E+005	-2.462483285834359E+001	1.047968302340664E+002	
5.810398437325528E+005	-2.454471599469176E+001	1.044024596416384E+002	
5.848469888906692E+005	-2.446500084892973E+001	1.040465090456952E+002	
5.886790795915247E+005	-2.438416861710560E+001	1.035990627832244E+002	
5.925362792857041E+005	-2.430512792323707E+001	1.031299927671812E+002	
5.964187524947689E+005	-2.422635137016972E+001	1.027440743996629E+002	
6.003266648182746E+005	-2.414517182635274E+001	1.023465773632551E+002	
6.042601829408339E+005	-2.406099281247936E+001	1.019348113763328E+002	
6.082194746392266E+005	-2.398038018142472E+001	1.015059545328507E+002	
6.122047087895556E+005	-2.389810773205129E+001	1.010778604163478E+002	
6.162160553744501E+005	-2.381355440316803E+001	1.006654611352243E+002	
6.202536854903157E+005	-2.372953315192584E+001	1.002729654564925E+002	
6.243177713546323E+005	-2.364808123640834E+001	9.983303019193528E+001	
6.284084863133002E+005	-2.355865674809319E+001	9.951021773431067E+001	
6.325260048480327E+005	-2.347876532817949E+001	9.901585406044492E+001	
6.366705025837995E+005	-2.339642843587782E+001	9.858548807631672E+001	
6.408421562963169E+005	-2.331174903402536E+001	9.817544666059304E+001	
6.450411439195880E+005	-2.322482989257846E+001	9.772797946936714E+001	
6.492676445534922E+005	-2.314007764714951E+001	9.730986816449735E+001	
6.535218384714247E+005	-2.305577144195210E+001	9.689731971156583E+001	
6.578039071279848E+005	-2.297100889102330E+001	9.644963693779923E+001	
6.621140331667166E+005	-2.288584034225272E+001	9.599838093781530E+001	
6.664524004278985E+005	-2.280146523303988E+001	9.559107131048359E+001	
6.708191939563849E+005	-2.271356189810488E+001	9.515419698035264E+001	
6.752146000094990E+005	-2.262617955652472E+001	9.472032248527913E+001	
6.796388060649771E+005	-2.254050719424740E+001	9.423775563063938E+001	
6.840920008289651E+005	-2.244875079826564E+001	9.381765264329468E+001	
6.885743742440676E+005	-2.236444465129491E+001	9.343156376402538E+001	
6.930861174974493E+005	-2.227306391605248E+001	9.302465797263892E+001	
6.976274230289898E+005	-2.219770337445832E+001	9.253531370657605E+001	
7.021984845394918E+005	-2.209840910196908E+001	9.209259445144092E+001	
7.067994969989432E+005	-2.201969626555199E+001	9.166064955210244E+001	
7.114306566548328E+005	-2.192640148810020E+001	9.116483055712574E+001	
7.160921610405211E+005	-2.183643681693405E+001	9.077141626932946E+001	
7.207842089836659E+005	-2.173197138568231E+001	9.047968039780626E+001	
7.255070006147025E+005	-2.164306817582252E+001	9.011251503933629E+001	
7.302607373753800E+005	-2.154626355790083E+001	8.963071288360911E+001	
7.350456220273539E+005	-2.146337969135399E+001	8.912316993321079E+001	
7.398618586608336E+005	-2.137996997871463E+001	8.849021036151443E+001	
7.447096527032884E+005	-2.128818303714962E+001	8.802397683336558E+001	
7.495892109282091E+005	-2.119483025063421E+001	8.752843542773582E+001	
7.545007414639277E+005	-2.110372618836308E+001	8.701283081443874E+001	
7.594444538024946E+005	-2.100452820471019E+001	8.658209395629872E+001	
7.644205588086142E+005	-2.091367885557159E+001	8.609550271636061E+001	
7.694292687286388E+005	-2.081937939146899E+001	8.563888243659474E+001	
7.744707971996219E+005	-2.072077969983961E+001	8.516344942187367E+001	
7.795453592584301E+005	-2.063104279558128E+001	8.466808585115200E+001	
7.846531713509152E+005	-2.052290974993195E+001	8.411133002044585E+001	
7.897944513411465E+005	-2.043896383821380E+001	8.363225045385117E+001	
7.949694185207030E+005	-2.033829410223472E+001	8.309853547314204E+001	
8.001782936180272E+005	-2.023730474186099E+001	8.264328790703743E+001	
8.054212988078399E+005	-2.012918062034054E+001	8.220829096356096E+001	
8.106986577206160E+005	-2.003009045433185E+001	8.155020214885089E+001	
8.160105954521240E+005	-1.992980923499839E+001	8.103417024919870E+001	
8.213573385730264E+005	-1.983435700295488E+001	8.046288123940576E+001	
8.267391151385435E+005	-1.972273770693791E+001	7.990996734513782E+001	
8.321561546981814E+005	-1.961242357977164E+001	7.934249844233710E+001	
8.376086883055224E+005	-1.951329075087196E+001	7.880322803982078E+001	
8.430969485280803E+005	-1.942132360683022E+001	7.831772713666217E+001	
8.486211694572198E+005	-1.929160830982346E+001	7.767833552096857E+001	
8.541815867181420E+005	-1.921250108398957E+001	7.708621518829328E+001	
8.597784374799342E+005	-1.910574296785676E+001	7.661804830370863E+001	
8.654119604656852E+005	-1.897460536525383E+001	7.595236135888213E+001	
8.710823959626689E+005	-1.886310338483689E+001	7.540502654144689E+001	
8.767899858325921E+005	-1.874808642214786E+001	7.474477457980080E+001	
8.825349735219113E+005	-1.863089477172697E+001	7.405998328029038E+001	
8.883176040722162E+005	-1.853355761332799E+001	7.344029431586651E+001	
8.941381241306819E+005	-1.840961451420002E+001	7.283429129597558E+001	
8.999967819605883E+005	-1.827156943921391E+001	7.224113832007058E+001	
9.058938274519104E+005	-1.817063961309449E+001	7.151185352457615E+001	
9.118295121319760E+005	-1.803864990250143E+001	7.077665593467886E+001	
9.178040891761945E+005	-1.791878763904365E+001	7.015749969718151E+001	
9.238178134188557E+005	-1.778483546929873E+001	6.939737548211069E+001	
9.298709413639989E+005	-1.766096067429660E+001	6.856682788697567E+001	
9.359637311963543E+005	-1.753106907657807E+001	6.787305987489958E+001	
9.420964427923544E+005	-1.740408348260077E+001	6.701250307238442E+001	
9.482693377312193E+005	-1.726022128324683E+001	6.624471918834023E+001	
9.544826793061136E+005	-1.710790681843873E+001	6.552822244789303E+001	
9.607367325353769E+005	-1.696829094042009E+001	6.472170843685791E+001	
9.670317641738271E+005	-1.685286256074381E+001	6.354934701485782E+001	
9.733680427241389E+005	-1.667643946740484E+001	6.289897420175909E+001	
9.797458384482961E+005	-1.653766077887012E+001	6.174563573788652E+001	
9.861654233791188E+005	-1.639441817450297E+001	6.087395369068168E+001	
9.926270713318669E+005	-1.626943379442106E+001	5.988492667072204E+001	
9.991310579159191E+005	-1.610243727225098E+001	5.868007102483509E+001	
1.005677660546528E+006	-1.593861209535095E+001	5.782944880508858E+001	
1.012267158456654E+006	-1.578664470124594E+001	5.654382105269058E+001	
1.018899832708873E+006	-1.564458801510071E+001	5.514980074548654E+001	
1.025575966207368E+006	-1.547903519814273E+001	5.413662213914478E+001	
1.032295843709993E+006	-1.526974733104737E+001	5.230831194974292E+001	
1.039059751840419E+006	-1.515883118896825E+001	5.133107410568221E+001	
1.045867979100362E+006	-1.493383696583606E+001	4.981801997359342E+001	
1.052720815881885E+006	-1.497731612915517E+001	4.925275394406844E+001	
1.059618554479787E+006	-1.476813933595372E+001	4.723598037269375E+001	
1.066561489104068E+006	-1.449395705687821E+001	4.600986792917534E+001	
1.073549915892481E+006	-1.439773304745306E+001	4.484124735756222E+001	
1.080584132923160E+006	-1.419276443656268E+001	4.277263750433090E+001	
1.087664440227334E+006	-1.398942423760494E+001	4.131038269629336E+001	
1.094791139802127E+006	-1.373395984297459E+001	3.913967261479363E+001	
1.101964535623438E+006	-1.356181784708864E+001	3.724910653700557E+001	
1.109184933658906E+006	-1.336790822427518E+001	3.454748184224719E+001	
1.116452641880958E+006	-1.314879237005681E+001	3.229648650338981E+001	
1.123767970279951E+006	-1.302192188486257E+001	2.908588649192769E+001	
1.131131230877389E+006	-1.286946702447055E+001	2.552968037563720E+001	
1.138542737739234E+006	-1.301728664649970E+001	2.333497404005633E+001	
1.146002806989300E+006	-1.273673914856523E+001	2.092113628074197E+001	
1.153511756822739E+006	-1.258518297775899E+001	1.807065770012899E+001	
1.161069907519612E+006	-1.258728234976950E+001	1.358505208735445E+001	
1.168677581458549E+006	-1.272687127648096E+001	1.241105509720891E+001	
1.176335103130500E+006	-1.237686154052961E+001	7.296164999387480E+000	
1.184042799152576E+006	-1.251465692616295E+001	5.547871417703417E+000	
1.191800998281983E+006	-1.238094018069822E+001	1.602397556625755E+000	
1.199610031430037E+006	-1.226740895108626E+001	-2.176986073451852E+000	
1.207470231676285E+006	-1.260818396611896E+001	-7.968025567420837E+000	
1.215381934282710E+006	-1.231139457351115E+001	-1.220302310785852E+001	
1.223345476708032E+006	-1.261492114022376E+001	-1.710854304231328E+001	
1.231361198622098E+006	-1.290930083100426E+001	-2.035160507496006E+001	
1.239429441920374E+006	-1.331630594945892E+001	-2.425368394341901E+001	
1.247550550738526E+006	-1.370029359383596E+001	-2.778022571167356E+001	
1.255724871467098E+006	-1.423708134540934E+001	-3.243822263646175E+001	
1.263952752766290E+006	-1.427597715124571E+001	-3.358484537390572E+001	
1.272234545580823E+006	-1.443948285387245E+001	-3.960046404670268E+001	
1.280570603154916E+006	-1.499864292097856E+001	-4.350770531981955E+001	
1.288961281047345E+006	-1.564796552142747E+001	-4.771364364837869E+001	
1.297406937146615E+006	-1.616517705998116E+001	-5.000120917635695E+001	
1.305907931686222E+006	-1.668266847450980E+001	-5.401593019541637E+001	
1.314464627260017E+006	-1.733632700733162E+001	-5.616409450913982E+001	
1.323077388837675E+006	-1.808381674103332E+001	-5.922271614658320E+001	
1.331746583780260E+006	-1.866691424453084E+001	-6.152188673351832E+001	
1.340472581855894E+006	-1.938167452306569E+001	-6.334853236003597E+001	
1.349255755255530E+006	-2.003935558940213E+001	-6.580363550422068E+001	
1.358096478608826E+006	-2.073289339506300E+001	-6.744031741180851E+001	
1.366995129000124E+006	-2.158408622511610E+001	-6.972704220646519E+001	
1.375952085984535E+006	-2.238035110010795E+001	-7.088419502420302E+001	
1.384967731604127E+006	-2.324408672459107E+001	-7.228174614500273E+001	
1.394042450404222E+006	-2.398414329424663E+001	-7.209262671923521E+001	
1.403176629449796E+006	-2.497931082727457E+001	-7.323609862158544E+001	
1.412370658341988E+006	-2.568160982761919E+001	-7.427569314818818E+001	
1.421624929234721E+006	-2.650062614691639E+001	-7.409028151884051E+001	
1.430939836851426E+006	-2.737223265805367E+001	-7.452391345161790E+001	
1.440315778501879E+006	-2.844883348391077E+001	-7.589859890814302E+001	
1.449753154099146E+006	-2.964875499652581E+001	-7.533382783927337E+001	
1.459252366176646E+006	-3.082268537746221E+001	-7.420440067645762E+001	
1.468813819905310E+006	-3.217720298971020E+001	-7.333844865429168E+001	
1.478437923110874E+006	-3.360788764427266E+001	-7.074617949916761E+001	
1.488125086291267E+006	-3.514439928964805E+001	-6.650191007937356E+001	
1.497875722634121E+006	-3.675500485318042E+001	-6.200034542691265E+001	
1.507690248034399E+006	-3.876783424473991E+001	-5.380074974241624E+001	
1.517569081112128E+006	-4.059442504323620E+001	-4.087287850218549E+001	
1.527512643230257E+006	-4.149774662733124E+001	-2.145808071329430E+001	
1.537521358512634E+006	-4.204958118483265E+001	-5.185739292584841E+000	
1.547595653862087E+006	-4.097828934214501E+001	1.509310062966783E+001	
1.557735958978641E+006	-3.998890535813628E+001	2.596563953638781E+001	
1.567942706377842E+006	-3.857338147240287E+001	3.670749487071618E+001	
1.578216331409205E+006	-3.708778144604334E+001	4.204100523205847E+001	
1.588557272274786E+006	-3.593136707827271E+001	4.618806877712685E+001	
1.598965970047869E+006	-3.499180467818014E+001	5.016421380679114E+001	
1.609442868691781E+006	-3.406791502553186E+001	5.193344166947663E+001	
1.619988415078829E+006	-3.325153564134043E+001	5.420274856021764E+001	
1.630603059009359E+006	-3.242533146805594E+001	5.526566506502182E+001	
1.641287253230943E+006	-3.170923723369157E+001	5.590906673210155E+001	
1.652041453457688E+006	-3.107833839011750E+001	5.664225815014385E+001	
1.662866118389675E+006	-3.049681820760811E+001	5.659385943970733E+001	
1.673761709732524E+006	-3.001519521816234E+001	5.698731520980415E+001	
1.684728692217088E+006	-2.952656806268002E+001	5.684148558129706E+001	
1.695767533619273E+006	-2.907835534038912E+001	5.696081106143967E+001	
1.706878704779991E+006	-2.866423835405958E+001	5.674176339555402E+001	
1.718062679625245E+006	-2.830854553703167E+001	5.640476289659887E+001	
1.729319935186339E+006	-2.792573634149896E+001	5.628894435988173E+001	
1.740650951620230E+006	-2.761478047202687E+001	5.583379743868387E+001	
1.752056212230003E+006	-2.735788785392686E+001	5.545833335819340E+001	
1.763536203485489E+006	-2.704991985702450E+001	5.547646329442434E+001	
1.775091415044016E+006	-2.676965776830050E+001	5.490646377972666E+001	
1.786722339771287E+006	-2.656476701264086E+001	5.477433934524257E+001	
1.798429473762410E+006	-2.633335614747112E+001	5.461022475713383E+001	
1.810213316363056E+006	-2.605490146767770E+001	5.430346370178128E+001	
1.822074370190755E+006	-2.584679998766906E+001	5.376168343857234E+001	
1.834013141156335E+006	-2.565215737319964E+001	5.381111622555247E+001	
1.846030138485505E+006	-2.543399533424094E+001	5.347012886935390E+001	
1.858125874740568E+006	-2.521093435547045E+001	5.330360186971926E+001	
1.870300865842289E+006	-2.503043042921250E+001	5.292042387973763E+001	
1.882555631091898E+006	-2.480073809307038E+001	5.265743729912874E+001	
1.894890693193242E+006	-2.459692161941823E+001	5.206904497292231E+001	
1.907306578275076E+006	-2.443676334658255E+001	5.179694589364230E+001	
1.919803815913509E+006	-2.424873938991196E+001	5.109841838044622E+001	
1.932382939154587E+006	-2.409606271069357E+001	5.064684575598909E+001	
1.945044484537033E+006	-2.391867090624271E+001	4.990203426950083E+001	
1.957788992115130E+006	-2.382283303225542E+001	4.937050313158230E+001	
1.970617005481758E+006	-2.367742722817999E+001	4.907635780848560E+001	
1.983529071791577E+006	-2.354901847240453E+001	4.848403662269061E+001	
1.996525741784367E+006	-2.339736704461672E+001	4.814015965983799E+001	
2.009607569808519E+006	-2.330084547021669E+001	4.729478802083932E+001	
2.022775113844676E+006	-2.320271898270250E+001	4.704207731438089E+001	
2.036028935529539E+006	-2.311244586101229E+001	4.664288154660184E+001	
2.049369600179817E+006	-2.296110748184151E+001	4.638282578617353E+001	
2.062797676816343E+006	-2.285106636223105E+001	4.577948768232059E+001	
2.076313738188340E+006	-2.275787282042653E+001	4.484422451777665E+001	
2.089918360797857E+006	-2.272584527018023E+001	4.478976013578767E+001	
2.103612124924354E+006	-2.259463071346108E+001	4.431089443624336E+001	
2.117395614649452E+006	-2.258928509398906E+001	4.371312947660638E+001	
2.131269417881852E+006	-2.242837704010376E+001	4.374181446490061E+001	
2.145234126382402E+006	-2.228571890319630E+001	4.316549140192995E+001	
2.159290335789346E+006	-2.223408663622973E+001	4.259043080886973E+001	
2.173438645643724E+006	-2.213823312543827E+001	4.201902449472912E+001	
2.187679659414948E+006	-2.209475709954510E+001	4.185776976662436E+001	
2.202013984526541E+006	-2.204058415278669E+001	4.079415631337933E+001	
2.216442232382041E+006	-2.198212806263993E+001	4.086351075905538E+001	
2.230965018391088E+006	-2.189952312487573E+001	4.090550779512034E+001	
2.245582961995665E+006	-2.177609128940365E+001	4.056729274450565E+001	
2.260296686696523E+006	-2.170351477933995E+001	4.012240602752623E+001	
2.275106820079775E+006	-2.157719852600521E+001	3.955077782068083E+001	
2.290013993843664E+006	-2.151618289820626E+001	3.867833896447003E+001	
2.305018843825507E+006	-2.147790924970106E+001	3.833389828748152E+001	
2.320122010028816E+006	-2.133195712696674E+001	3.685007806153615E+001	
2.335324136650594E+006	-2.130545545120992E+001	3.654492495605152E+001	
2.350625872108815E+006	-2.147109278373617E+001	3.602706190872382E+001	
2.366027869070079E+006	-2.145391250228950E+001	3.635019045927113E+001	
2.381530784477451E+006	-2.139337012169309E+001	3.645396708280691E+001	
2.397135279578482E+006	-2.142295459505458E+001	3.453696235248610E+001	
2.412842019953412E+006	-2.153422868840083E+001	3.508459591235338E+001	
2.428651675543560E+006	-2.159189708424888E+001	3.474833723335183E+001	
2.444564920679900E+006	-2.150693679362867E+001	3.525646119895832E+001	
2.460582434111821E+006	-2.135892502295946E+001	3.608970528758695E+001	
2.476704899036080E+006	-2.124528741669040E+001	3.657143484514884E+001	
2.492933003125940E+006	-2.114525059889610E+001	3.647262343780388E+001	
2.509267438560506E+006	-2.105588853332701E+001	3.613831508372103E+001	
2.525708902054241E+006	-2.101164383918340E+001	3.602346390910915E+001	
2.542258094886692E+006	-2.086343895299692E+001	3.616049739700070E+001	
2.558915722932395E+006	-2.075969446230214E+001	3.583981260919527E+001	
2.575682496690984E+006	-2.066818470139279E+001	3.573891657375312E+001	
2.592559131317500E+006	-2.054120765421542E+001	3.530198305098126E+001	
2.609546346652889E+006	-2.053654642996080E+001	3.483298309068120E+001	
2.626644867254709E+006	-2.043825074927435E+001	3.501640537636926E+001	
2.643855422428036E+006	-2.031674461134618E+001	3.482440675961814E+001	
2.661178746256564E+006	-2.018709541243843E+001	3.421257333678388E+001	
2.678615577633925E+006	-2.010402500777720E+001	3.387601213063415E+001	
2.696166660295199E+006	-1.999045375099832E+001	3.335631020543714E+001	
2.713832742848640E+006	-1.990366897127296E+001	3.278411607111787E+001	
2.731614578807603E+006	-1.983763525951857E+001	3.209674307488115E+001	
2.749512926622687E+006	-1.975877152720982E+001	3.155266145146610E+001	
2.767528549714084E+006	-1.969836064997617E+001	3.114909793355298E+001	
2.785662216504141E+006	-1.967843504756371E+001	3.094440053319257E+001	
2.803914700450135E+006	-1.960660149809722E+001	3.044578767369278E+001	
2.822286780077266E+006	-1.953133952844791E+001	3.016731707983288E+001	
2.840779239011859E+006	-1.944175148511357E+001	2.968704166372595E+001	
2.859392866014794E+006	-1.935349753041024E+001	2.909972508555774E+001	
2.878128455015144E+006	-1.929437912057457E+001	2.844847883607088E+001	
2.896986805144040E+006	-1.923861850277520E+001	2.812554118435361E+001	
2.915968720768759E+006	-1.915835252119316E+001	2.758584548835994E+001	
2.935075011527028E+006	-1.912034657351994E+001	2.700993599430976E+001	
2.954306492361563E+006	-1.905690428860507E+001	2.648113495987242E+001	
2.973663983554823E+006	-1.900804254989781E+001	2.602527172784237E+001	
2.993148310764003E+006	-1.893820215200164E+001	2.554461041658518E+001	
3.012760305056247E+006	-1.887350073333005E+001	2.502428646558487E+001	
3.032500802944099E+006	-1.882369850395020E+001	2.442493138140025E+001	
3.052370646421178E+006	-1.878087651028984E+001	2.383781258674217E+001	
3.072370682998098E+006	-1.871788160616582E+001	2.334901007419536E+001	
