# Version 1.00
#
# Ref Impedances: Z01: 50, Z02: 50
# 
freq[Hz]	db:Trc9_S21	ang:Trc9_S21	
5.000000000000000E+005	-2.650636282476720E+001	1.140998585427876E+002	
5.032761480982608E+005	-2.622583307981628E+001	1.132345006900350E+002	
5.065737624892451E+005	-2.606136966377754E+001	1.125042145075955E+002	
5.098929838264610E+005	-2.599094730755437E+001	1.120644805550457E+002	
5.132339536850202E+005	-2.591830582483800E+001	1.115800720492002E+002	
5.165968145676763E+005	-2.583693273391089E+001	1.110383200056818E+002	
5.199817099109033E+005	-2.575120594183164E+001	1.105261934384404E+002	
5.233887840910133E+005	-2.567210389964637E+001	1.100119657667439E+002	
5.268181824303150E+005	-2.563785303676747E+001	1.098879491204730E+002	
5.302700512033115E+005	-2.553167516367523E+001	1.092125038162688E+002	
5.337445376429403E+005	-2.544019572211980E+001	1.085122845920812E+002	
5.372417899468524E+005	-2.538468843742649E+001	1.082290574329636E+002	
5.407619572837337E+005	-2.529389614073033E+001	1.076209420937185E+002	
5.443051897996675E+005	-2.522891021443516E+001	1.072735187765781E+002	
5.478716386245388E+005	-2.514930612915323E+001	1.067276778282333E+002	
5.514614558784805E+005	-2.507394843923724E+001	1.062515884622221E+002	
5.550747946783613E+005	-2.500023462403808E+001	1.058263308270670E+002	
5.587118091443173E+005	-2.502840183396469E+001	1.067268114440045E+002	
5.623726544063253E+005	-2.485191608474470E+001	1.050230910084874E+002	
5.660574866108197E+005	-2.477296804606883E+001	1.044999456994361E+002	
5.697664629273524E+005	-2.469738649010194E+001	1.041058008781286E+002	
5.734997415552969E+005	-2.462930566470793E+001	1.038890183105053E+002	
5.772574817305958E+005	-2.454749201855334E+001	1.033930808603778E+002	
5.810398437325528E+005	-2.446393960388776E+001	1.028621680837376E+002	
5.848469888906692E+005	-2.438556499343893E+001	1.024535311520629E+002	
5.886790795915247E+005	-2.431879189107219E+001	1.024291861913960E+002	
5.925362792857041E+005	-2.422993383791858E+001	1.015933534971416E+002	
5.964187524947689E+005	-2.414983147707014E+001	1.011987099270330E+002	
6.003266648182746E+005	-2.407263416909593E+001	1.007946376244722E+002	
6.042601829408339E+005	-2.398363000727077E+001	1.008387780549051E+002	
6.082194746392266E+005	-2.390555650429490E+001	9.998601871003824E+001	
6.122047087895556E+005	-2.382524142974283E+001	9.957211594761321E+001	
6.162160553744501E+005	-2.374285494903788E+001	9.914462340937683E+001	
6.202536854903157E+005	-2.365960314099647E+001	9.879761697653763E+001	
6.243177713546323E+005	-2.356783986019771E+001	9.883496256928244E+001	
6.284084863133002E+005	-2.349447939012283E+001	9.788783999328643E+001	
6.325260048480327E+005	-2.341124017764222E+001	9.747308285405354E+001	
6.366705025837995E+005	-2.333208307734807E+001	9.705051546426016E+001	
6.408421562963169E+005	-2.324176948702962E+001	9.681590585558011E+001	
6.450411439195880E+005	-2.316243637716396E+001	9.625166247796459E+001	
6.492676445534922E+005	-2.307942419849642E+001	9.577221765036455E+001	
6.535218384714247E+005	-2.299517649037634E+001	9.534957581592194E+001	
6.578039071279848E+005	-2.290326066388222E+001	9.506660684988790E+001	
6.621140331667166E+005	-2.282134212063081E+001	9.455942602249780E+001	
6.664524004278985E+005	-2.274331893954582E+001	9.405735693421553E+001	
6.708191939563849E+005	-2.265631633242691E+001	9.362829698209890E+001	
6.752146000094990E+005	-2.256836415139427E+001	9.328620876328948E+001	
6.796388060649771E+005	-2.248621597009932E+001	9.273275524226685E+001	
6.840920008289651E+005	-2.239518359110464E+001	9.227931904600349E+001	
6.885743742440676E+005	-2.231264215246768E+001	9.187717578673265E+001	
6.930861174974493E+005	-2.222444778134432E+001	9.142393499631136E+001	
6.976274230289898E+005	-2.213585842881564E+001	9.137786195337851E+001	
7.021984845394918E+005	-2.204711823293004E+001	9.055670273800158E+001	
7.067994969989432E+005	-2.196666596300458E+001	9.011427487454706E+001	
7.114306566548328E+005	-2.188202691765901E+001	8.964470780652998E+001	
7.160921610405211E+005	-2.178749693244305E+001	8.925121729125985E+001	
7.207842089836659E+005	-2.169448300411300E+001	8.874451047067363E+001	
7.255070006147025E+005	-2.161224455098012E+001	8.828000110972822E+001	
7.302607373753800E+005	-2.152251019678846E+001	8.778311849696870E+001	
7.350456220273539E+005	-2.142264601167835E+001	8.778287837378788E+001	
7.398618586608336E+005	-2.133462618357259E+001	8.717941131236107E+001	
7.447096527032884E+005	-2.124705860220988E+001	8.643520802091014E+001	
7.495892109282091E+005	-2.115736146508625E+001	8.593108461372965E+001	
7.545007414639277E+005	-2.106746344851363E+001	8.550495119001991E+001	
7.594444538024946E+005	-2.096621217943683E+001	8.499935106721128E+001	
7.644205588086142E+005	-2.087801891155328E+001	8.452442262839200E+001	
7.694292687286388E+005	-2.078437725714024E+001	8.404278688047550E+001	
7.744707971996219E+005	-2.068638006373059E+001	8.357591069596099E+001	
7.795453592584301E+005	-2.058790897341361E+001	8.336183761812352E+001	
7.846531713509152E+005	-2.049204804726729E+001	8.250148418810707E+001	
7.897944513411465E+005	-2.040643240725981E+001	8.206151037653700E+001	
7.949694185207030E+005	-2.030709769855232E+001	8.149041710385279E+001	
8.001782936180272E+005	-2.020247992297071E+001	8.107935035990654E+001	
8.054212988078399E+005	-2.010406973996517E+001	8.050902958824480E+001	
8.106986577206160E+005	-2.000188632628071E+001	7.997165718254732E+001	
8.160105954521240E+005	-1.990176366416950E+001	7.944044488098032E+001	
8.213573385730264E+005	-1.980077573856064E+001	7.909443109884876E+001	
8.267391151385435E+005	-1.969743320208928E+001	7.835975104487864E+001	
8.321561546981814E+005	-1.958984556433582E+001	7.773532451758463E+001	
8.376086883055224E+005	-1.948811811296309E+001	7.722452345325095E+001	
8.430969485280803E+005	-1.938928359500940E+001	7.688563828314798E+001	
8.486211694572198E+005	-1.926327725058547E+001	7.620040524378626E+001	
8.541815867181420E+005	-1.918726494266201E+001	7.548078685545708E+001	
8.597784374799342E+005	-1.907669043861674E+001	7.500370028835978E+001	
8.654119604656852E+005	-1.895443372783954E+001	7.436697608117602E+001	
8.710823959626689E+005	-1.883778106942240E+001	7.392866767916688E+001	
8.767899858325921E+005	-1.872876691639334E+001	7.311653448759451E+001	
8.825349735219113E+005	-1.861298478782080E+001	7.240733305254534E+001	
8.883176040722162E+005	-1.851493396918558E+001	7.181721155654743E+001	
8.941381241306819E+005	-1.839050471659256E+001	7.119840905152394E+001	
8.999967819605883E+005	-1.825616003281321E+001	7.049686329744654E+001	
9.058938274519104E+005	-1.815494546904480E+001	6.986081923322553E+001	
9.118295121319760E+005	-1.802274968367981E+001	6.911980666112389E+001	
9.178040891761945E+005	-1.789978873926175E+001	6.864157523896355E+001	
9.238178134188557E+005	-1.776980990617997E+001	6.770668899761857E+001	
9.298709413639989E+005	-1.764863832685145E+001	6.687562392314793E+001	
9.359637311963543E+005	-1.751477741811087E+001	6.619214640134440E+001	
9.420964427923544E+005	-1.739033082546999E+001	6.537457996768566E+001	
9.482693377312193E+005	-1.725114604697125E+001	6.448155354756894E+001	
9.544826793061136E+005	-1.710300809361744E+001	6.365275051537421E+001	
9.607367325353769E+005	-1.695720738470173E+001	6.288307761312478E+001	
9.670317641738271E+005	-1.685382524822298E+001	6.180258391297963E+001	
9.733680427241389E+005	-1.666487333927811E+001	6.103883646682955E+001	
9.797458384482961E+005	-1.653142807745176E+001	5.982137658968942E+001	
9.861654233791188E+005	-1.638351280836481E+001	5.901261672818750E+001	
9.926270713318669E+005	-1.625358887382014E+001	5.805924264439732E+001	
9.991310579159191E+005	-1.608562482079206E+001	5.690796183744271E+001	
1.005677660546528E+006	-1.592078480366078E+001	5.593964736165352E+001	
1.012267158456654E+006	-1.577569964278174E+001	5.456377594227644E+001	
1.018899832708873E+006	-1.561877772912382E+001	5.318496482991581E+001	
1.025575966207368E+006	-1.545320816664368E+001	5.209124424163939E+001	
1.032295843709993E+006	-1.529196557230964E+001	5.001926091584683E+001	
1.039059751840419E+006	-1.517958133086148E+001	4.934827512461033E+001	
1.045867979100362E+006	-1.492889918736764E+001	4.760518820099322E+001	
1.052720815881885E+006	-1.495144389102217E+001	4.722069496663038E+001	
1.059618554479787E+006	-1.480886876764349E+001	4.528452220978667E+001	
1.066561489104068E+006	-1.448898668179030E+001	4.367039398119796E+001	
1.073549915892481E+006	-1.437835599745928E+001	4.255260565179878E+001	
1.080584132923160E+006	-1.424943722591334E+001	4.054328014823531E+001	
1.087664440227334E+006	-1.396682443710302E+001	3.910141059448397E+001	
1.094791139802127E+006	-1.374464383022600E+001	3.679631628240614E+001	
1.101964535623438E+006	-1.355952339451510E+001	3.477915681264782E+001	
1.109184933658906E+006	-1.338204936502297E+001	3.212236882365344E+001	
1.116452641880958E+006	-1.315750020870548E+001	2.968331366998081E+001	
1.123767970279951E+006	-1.301210948496341E+001	2.638814897056916E+001	
1.131131230877389E+006	-1.292430717696727E+001	2.266178783308791E+001	
1.138542737739234E+006	-1.305132477914301E+001	2.067871256584401E+001	
1.146002806989300E+006	-1.281673569276606E+001	1.803362861503650E+001	
1.153511756822739E+006	-1.266709499596872E+001	1.511526226750911E+001	
1.161069907519612E+006	-1.273853058892271E+001	1.075082952565666E+001	
1.168677581458549E+006	-1.281267844504752E+001	9.330824194774490E+000	
1.176335103130500E+006	-1.269536737696650E+001	4.489011678958858E+000	
1.184042799152576E+006	-1.268212698568596E+001	2.027603826998553E+000	
1.191800998281983E+006	-1.260919981384365E+001	-1.437565521986616E+000	
1.199610031430037E+006	-1.243330367057729E+001	-5.247581546972072E+000	
1.207470231676285E+006	-1.283605829962954E+001	-9.566701075490853E+000	
1.215381934282710E+006	-1.262402302321668E+001	-1.562685199465788E+001	
1.223345476708032E+006	-1.298055940374208E+001	-2.034820956656164E+001	
1.231361198622098E+006	-1.321816366862270E+001	-2.393493826751983E+001	
1.239429441920374E+006	-1.365037932581569E+001	-2.741229334694418E+001	
1.247550550738526E+006	-1.408698747595927E+001	-3.059533378502469E+001	
1.255724871467098E+006	-1.475661637757747E+001	-3.477585982888616E+001	
1.263952752766290E+006	-1.461246372471492E+001	-3.654452394069991E+001	
1.272234545580823E+006	-1.497414007418414E+001	-4.212321177462091E+001	
1.280570603154916E+006	-1.553591388899593E+001	-4.608821273939130E+001	
1.288961281047345E+006	-1.621743939641276E+001	-4.993056916796402E+001	
1.297406937146615E+006	-1.672873902417878E+001	-5.211337215044715E+001	
1.305907931686222E+006	-1.729674595964039E+001	-5.609821692764216E+001	
1.314464627260017E+006	-1.792534446271568E+001	-5.814082958967899E+001	
1.323077388837675E+006	-1.871266775247292E+001	-6.088215237674913E+001	
1.331746583780260E+006	-1.930958799561721E+001	-6.325721932319569E+001	
1.340472581855894E+006	-1.996134607125250E+001	-6.491300490078179E+001	
1.349255755255530E+006	-2.070217205790790E+001	-6.729012270176612E+001	
1.358096478608826E+006	-2.141472586130864E+001	-6.911967816260665E+001	
1.366995129000124E+006	-2.228177182859717E+001	-7.117747722019684E+001	
1.375952085984535E+006	-2.312419254703692E+001	-7.224824754619141E+001	
1.384967731604127E+006	-2.402687752181727E+001	-7.354288154796672E+001	
1.394042450404222E+006	-2.480661040062210E+001	-7.348285712467006E+001	
1.403176629449796E+006	-2.586950961091422E+001	-7.407002256409987E+001	
1.412370658341988E+006	-2.662038274748876E+001	-7.496523139375096E+001	
1.421624929234721E+006	-2.743654927885654E+001	-7.445488970243208E+001	
1.430939836851426E+006	-2.833914475061636E+001	-7.564907987131259E+001	
1.440315778501879E+006	-2.954197834528955E+001	-7.653799156350137E+001	
1.449753154099146E+006	-3.084682772220717E+001	-7.547620328785541E+001	
1.459252366176646E+006	-3.211607197570322E+001	-7.453811375445625E+001	
1.468813819905310E+006	-3.364347987899275E+001	-7.271868455661647E+001	
1.478437923110874E+006	-3.531151049555217E+001	-6.960944385207669E+001	
1.488125086291267E+006	-3.709712538405547E+001	-6.382789516131959E+001	
1.497875722634121E+006	-3.895113005246483E+001	-5.672394428860223E+001	
1.507690248034399E+006	-4.114978018808277E+001	-4.394614909130752E+001	
1.517569081112128E+006	-4.266734177226702E+001	-2.432383174572908E+001	
1.527512643230257E+006	-4.252110370670791E+001	-1.717691518868327E+000	
1.537521358512634E+006	-4.209016184907979E+001	1.648748718774301E+001	
1.547595653862087E+006	-4.020203387171389E+001	3.097038685176354E+001	
1.557735958978641E+006	-3.893026805580193E+001	3.913829221700907E+001	
1.567942706377842E+006	-3.746802126794766E+001	4.615697439196503E+001	
1.578216331409205E+006	-3.613164779644192E+001	4.920125542096794E+001	
1.588557272274786E+006	-3.508065635035046E+001	5.193470687010939E+001	
1.598965970047869E+006	-3.412967652781757E+001	5.490904387659001E+001	
1.609442868691781E+006	-3.330500394934940E+001	5.578007330182030E+001	
1.619988415078829E+006	-3.253307413630455E+001	5.748494668788704E+001	
1.630603059009359E+006	-3.178045709353877E+001	5.804027421182001E+001	
1.641287253230943E+006	-3.112787664459816E+001	5.836137009454971E+001	
1.652041453457688E+006	-3.053923160388989E+001	5.875200214286490E+001	
1.662866118389675E+006	-3.000636279323390E+001	5.849552457970018E+001	
1.673761709732524E+006	-2.954657175930667E+001	5.861221645440480E+001	
1.684728692217088E+006	-2.910484351478781E+001	5.840234774209377E+001	
1.695767533619273E+006	-2.867278073268692E+001	5.838377010046301E+001	
1.706878704779991E+006	-2.828608155202317E+001	5.803950699430083E+001	
1.718062679625245E+006	-2.797881948138755E+001	5.762527803031009E+001	
1.729319935186339E+006	-2.759980249701128E+001	5.742877053961747E+001	
1.740650951620230E+006	-2.730926823159067E+001	5.695244083048647E+001	
1.752056212230003E+006	-2.706505873619279E+001	5.653179434986889E+001	
1.763536203485489E+006	-2.676660926088366E+001	5.638375842652273E+001	
1.775091415044016E+006	-2.652928261770416E+001	5.593555224311139E+001	
1.786722339771287E+006	-2.631690981849401E+001	5.587473287843470E+001	
1.798429473762410E+006	-2.608614199325720E+001	5.542626053443144E+001	
1.810213316363056E+006	-2.583059597810970E+001	5.502570676818205E+001	
1.822074370190755E+006	-2.563894299412975E+001	5.458754172965444E+001	
1.834013141156335E+006	-2.544252573123755E+001	5.475582914811366E+001	
1.846030138485505E+006	-2.523028142522511E+001	5.418617537543384E+001	
1.858125874740568E+006	-2.501508991207633E+001	5.391332896413859E+001	
1.870300865842289E+006	-2.483710453658521E+001	5.358272617708442E+001	
1.882555631091898E+006	-2.461700597304866E+001	5.321369012435677E+001	
1.894890693193242E+006	-2.443947644274830E+001	5.257666082079177E+001	
1.907306578275076E+006	-2.425863249050008E+001	5.236064692750212E+001	
1.919803815913509E+006	-2.408720656946959E+001	5.170480743918769E+001	
1.932382939154587E+006	-2.393191864858601E+001	5.120272122162892E+001	
1.945044484537033E+006	-2.377771807623059E+001	5.037049061841698E+001	
1.957788992115130E+006	-2.368233353732941E+001	4.990604578240226E+001	
1.970617005481758E+006	-2.353381881454980E+001	4.965902137367523E+001	
1.983529071791577E+006	-2.341597045347107E+001	4.894666562335966E+001	
1.996525741784367E+006	-2.326397738252263E+001	4.856466432826168E+001	
2.009607569808519E+006	-2.317647677953303E+001	4.783341135441398E+001	
2.022775113844676E+006	-2.308501943913628E+001	4.742769275850387E+001	
2.036028935529539E+006	-2.298889756169493E+001	4.719133111825777E+001	
2.049369600179817E+006	-2.283052463800611E+001	4.676834982881911E+001	
2.062797676816343E+006	-2.273050688559711E+001	4.617948555476567E+001	
2.076313738188340E+006	-2.264578145909441E+001	4.532850049174482E+001	
2.089918360797857E+006	-2.259652705438858E+001	4.515058552086258E+001	
2.103612124924354E+006	-2.247526885713926E+001	4.470243532786769E+001	
2.117395614649452E+006	-2.249163074404240E+001	4.430398620641205E+001	
2.131269417881852E+006	-2.232607619229958E+001	4.419268990869227E+001	
2.145234126382402E+006	-2.218800285197553E+001	4.356535163329239E+001	
2.159290335789346E+006	-2.214311442522449E+001	4.305415911033992E+001	
2.173438645643724E+006	-2.203600811398466E+001	4.239909274053036E+001	
2.187679659414948E+006	-2.198533930295053E+001	4.216200458479465E+001	
2.202013984526541E+006	-2.198226916049892E+001	4.116752715783147E+001	
2.216442232382041E+006	-2.188850035039511E+001	4.116333393722221E+001	
2.230965018391088E+006	-2.180898836698995E+001	4.129122720624350E+001	
2.245582961995665E+006	-2.169104881711449E+001	4.089957658866287E+001	
2.260296686696523E+006	-2.160744510532982E+001	4.045624660675772E+001	
2.275106820079775E+006	-2.148435826547232E+001	3.990918623833561E+001	
2.290013993843664E+006	-2.142192359471142E+001	3.904378184087877E+001	
2.305018843825507E+006	-2.138251937104836E+001	3.869867992525091E+001	
2.320122010028816E+006	-2.127316060624252E+001	3.709918383891897E+001	
2.335324136650594E+006	-2.123001189160080E+001	3.665951044902342E+001	
2.350625872108815E+006	-2.140246965115811E+001	3.635304014955408E+001	
2.366027869070079E+006	-2.136287292995835E+001	3.669880820653925E+001	
2.381530784477451E+006	-2.130287177429197E+001	3.682121895067829E+001	
2.397135279578482E+006	-2.134304652564732E+001	3.507358291049238E+001	
2.412842019953412E+006	-2.139931340574729E+001	3.566183186382998E+001	
2.428651675543560E+006	-2.156568752669898E+001	3.543484667744662E+001	
2.444564920679900E+006	-2.144438768112991E+001	3.564506969703083E+001	
2.460582434111821E+006	-2.130769098495586E+001	3.641569578191297E+001	
2.476704899036080E+006	-2.116924296022118E+001	3.684110658963525E+001	
2.492933003125940E+006	-2.104117350718393E+001	3.684313634060464E+001	
2.509267438560506E+006	-2.096364721360613E+001	3.652201225995667E+001	
2.525708902054241E+006	-2.093672293938967E+001	3.636807110122358E+001	
2.542258094886692E+006	-2.076276963859659E+001	3.651918361033075E+001	
2.558915722932395E+006	-2.066703927484676E+001	3.606717961079189E+001	
2.575682496690984E+006	-2.058229831298486E+001	3.590228769175994E+001	
2.592559131317500E+006	-2.046120573010135E+001	3.545868344530853E+001	
2.609546346652889E+006	-2.045413608501409E+001	3.512257120730358E+001	
2.626644867254709E+006	-2.035925849175839E+001	3.523261025528365E+001	
2.643855422428036E+006	-2.022964697085140E+001	3.503385563990205E+001	
2.661178746256564E+006	-2.010865499118905E+001	3.444451809566724E+001	
2.678615577633925E+006	-2.002368791265585E+001	3.408428507029171E+001	
2.696166660295199E+006	-1.991305492546059E+001	3.359047048128898E+001	
2.713832742848640E+006	-1.982691393599442E+001	3.299234658871753E+001	
2.731614578807603E+006	-1.976687404053849E+001	3.233277589593165E+001	
2.749512926622687E+006	-1.969046116218149E+001	3.175200984905301E+001	
2.767528549714084E+006	-1.964548847747118E+001	3.133425821746119E+001	
2.785662216504141E+006	-1.960733359597926E+001	3.113876882976074E+001	
2.803914700450135E+006	-1.953402424358106E+001	3.064765133127401E+001	
2.822286780077266E+006	-1.945568486104209E+001	3.037911394803831E+001	
2.840779239011859E+006	-1.936843721647211E+001	2.989259372126679E+001	
2.859392866014794E+006	-1.928196834360862E+001	2.929006021532043E+001	
2.878128455015144E+006	-1.922637222442677E+001	2.865716533646651E+001	
2.896986805144040E+006	-1.916449099331911E+001	2.833577523596020E+001	
2.915968720768759E+006	-1.908825181894550E+001	2.775530790102895E+001	
2.935075011527028E+006	-1.905083837783985E+001	2.722275395429180E+001	
2.954306492361563E+006	-1.899252426697287E+001	2.668192600697663E+001	
2.973663983554823E+006	-1.894002909422732E+001	2.620371913548789E+001	
2.993148310764003E+006	-1.886121871796921E+001	2.574307088066226E+001	
3.012760305056247E+006	-1.880357953378623E+001	2.518371736885382E+001	
3.032500802944099E+006	-1.875296852383001E+001	2.457944759698952E+001	
3.052370646421178E+006	-1.871731012225035E+001	2.402630915444555E+001	
3.072370682998098E+006	-1.865678554727649E+001	2.351712337613179E+001	
