# Version 1.00
#
# Ref Impedances: Z01: 50, Z02: 50
# 
freq[Hz]	db:Trc9_S21	ang:Trc9_S21	
5.000000000000000E+005	-2.619255901961058E+001	1.133343167548122E+002	
5.032761480982608E+005	-2.611578752763736E+001	1.127927318983437E+002	
5.065737624892451E+005	-2.603521769062946E+001	1.122741173031590E+002	
5.098929838264610E+005	-2.595375135515918E+001	1.117336036236043E+002	
5.132339536850202E+005	-2.587855272151696E+001	1.112027333323197E+002	
5.165968145676763E+005	-2.580266635579175E+001	1.106943664137893E+002	
5.199817099109033E+005	-2.579707767347412E+001	1.106311233733829E+002	
5.233887840910133E+005	-2.587599385445626E+001	1.108382931768416E+002	
5.268181824303150E+005	-2.558150711177376E+001	1.092161427993072E+002	
5.302700512033115E+005	-2.553210908855819E+001	1.091737465223619E+002	
5.337445376429403E+005	-2.543333513419439E+001	1.082652884066962E+002	
5.372417899468524E+005	-2.536062175502146E+001	1.078104372650764E+002	
5.407619572837337E+005	-2.528901705367376E+001	1.073359596955291E+002	
5.443051897996675E+005	-2.521660190543781E+001	1.068733477844821E+002	
5.478716386245388E+005	-2.514667646655533E+001	1.064728875172536E+002	
5.514614558784805E+005	-2.511059670422160E+001	1.069302372194368E+002	
5.550747946783613E+005	-2.500262241093299E+001	1.056820287143010E+002	
5.587118091443173E+005	-2.492550981693713E+001	1.051902612760048E+002	
5.623726544063253E+005	-2.485299020352439E+001	1.047573026569915E+002	
5.660574866108197E+005	-2.477732419246392E+001	1.043349727812734E+002	
5.697664629273524E+005	-2.470244578066976E+001	1.039398290300452E+002	
5.734997415552969E+005	-2.462608759779567E+001	1.035173989506119E+002	
5.772574817305958E+005	-2.455062414966421E+001	1.031129705959002E+002	
5.810398437325528E+005	-2.447563913455753E+001	1.030143168147167E+002	
5.848469888906692E+005	-2.439057374972652E+001	1.023886447910773E+002	
5.886790795915247E+005	-2.431611227649885E+001	1.018720775886034E+002	
5.925362792857041E+005	-2.423796590440502E+001	1.014601123189433E+002	
5.964187524947689E+005	-2.415805238682550E+001	1.010846452308118E+002	
6.003266648182746E+005	-2.407808097710489E+001	1.006985458178983E+002	
6.042601829408339E+005	-2.399675057086750E+001	1.002843928506552E+002	
6.082194746392266E+005	-2.391287935533381E+001	9.988387293023318E+001	
6.122047087895556E+005	-2.383200650126456E+001	9.964237393223583E+001	
6.162160553744501E+005	-2.375926638084845E+001	9.998966435623370E+001	
6.202536854903157E+005	-2.366922834441768E+001	9.863253409173771E+001	
6.243177713546323E+005	-2.358727554263680E+001	9.822547873019484E+001	
6.284084863133002E+005	-2.350058581183525E+001	9.788451225362798E+001	
6.325260048480327E+005	-2.341705908871464E+001	9.740529698716759E+001	
6.366705025837995E+005	-2.333969430426068E+001	9.727622615471184E+001	
6.408421562963169E+005	-2.325481149943805E+001	9.656482121573781E+001	
6.450411439195880E+005	-2.316893260419816E+001	9.611581278750613E+001	
6.492676445534922E+005	-2.307553143394916E+001	9.607234770074315E+001	
6.535218384714247E+005	-2.299703229876491E+001	9.568813504719567E+001	
6.578039071279848E+005	-2.291483955093986E+001	9.484412650474839E+001	
6.621140331667166E+005	-2.283191915047748E+001	9.441137611783746E+001	
6.664524004278985E+005	-2.274788675541581E+001	9.399623568385144E+001	
6.708191939563849E+005	-2.266159901150821E+001	9.355852824585411E+001	
6.752146000094990E+005	-2.257592055937741E+001	9.312014725230891E+001	
6.796388060649771E+005	-2.249202583229771E+001	9.265667774702455E+001	
6.840920008289651E+005	-2.239759419799390E+001	9.224074628045251E+001	
6.885743742440676E+005	-2.230636712276479E+001	9.210300105065205E+001	
6.930861174974493E+005	-2.222944878753278E+001	9.135286444274644E+001	
6.976274230289898E+005	-2.215115162315450E+001	9.092423500144271E+001	
7.021984845394918E+005	-2.205320721616178E+001	9.050271795416344E+001	
7.067994969989432E+005	-2.197232696925281E+001	9.006786754302540E+001	
7.114306566548328E+005	-2.188701795923488E+001	8.958263912010496E+001	
7.160921610405211E+005	-2.179394413194948E+001	8.915779787277523E+001	
7.207842089836659E+005	-2.170072748284799E+001	8.868854137881337E+001	
7.255070006147025E+005	-2.160812911218779E+001	8.851178798292926E+001	
7.302607373753800E+005	-2.152249226009717E+001	8.796998063916810E+001	
7.350456220273539E+005	-2.143480601854578E+001	8.731964732047507E+001	
7.398618586608336E+005	-2.134150061132978E+001	8.685136497278324E+001	
7.447096527032884E+005	-2.125074775690433E+001	8.639434423781633E+001	
7.495892109282091E+005	-2.116165705939238E+001	8.587880093850900E+001	
7.545007414639277E+005	-2.107314191377511E+001	8.539390988813743E+001	
7.594444538024946E+005	-2.097076128768333E+001	8.495152091497785E+001	
7.644205588086142E+005	-2.088004888143761E+001	8.452797819315903E+001	
7.694292687286388E+005	-2.077895592693830E+001	8.441506562203891E+001	
7.744707971996219E+005	-2.069029482710678E+001	8.352059194853368E+001	
7.795453592584301E+005	-2.060088008808705E+001	8.302993171976414E+001	
7.846531713509152E+005	-2.049625935328776E+001	8.245045310144261E+001	
7.897944513411465E+005	-2.041002070756099E+001	8.201441896887717E+001	
7.949694185207030E+005	-2.031074413163676E+001	8.143563121643740E+001	
8.001782936180272E+005	-2.020813213277765E+001	8.097286192749900E+001	
8.054212988078399E+005	-2.010659294195285E+001	8.048812395223044E+001	
8.106986577206160E+005	-1.999740018865306E+001	8.021267989400519E+001	
8.160105954521240E+005	-1.990333355770729E+001	7.947466714204096E+001	
8.213573385730264E+005	-1.981104434954462E+001	7.882397375225276E+001	
8.267391151385435E+005	-1.970306186496815E+001	7.825838363722700E+001	
8.321561546981814E+005	-1.959359309692631E+001	7.769248118886851E+001	
8.376086883055224E+005	-1.949151034150083E+001	7.717035327074053E+001	
8.430969485280803E+005	-1.939675966104231E+001	7.665755576768298E+001	
8.486211694572198E+005	-1.927162676036213E+001	7.596733537559035E+001	
8.541815867181420E+005	-1.918983130843661E+001	7.549079330360513E+001	
8.597784374799342E+005	-1.907845445815658E+001	7.500075182284255E+001	
8.654119604656852E+005	-1.895987243784043E+001	7.424213505636250E+001	
8.710823959626689E+005	-1.884611717374869E+001	7.370540223980949E+001	
8.767899858325921E+005	-1.873227275274678E+001	7.306719872609533E+001	
8.825349735219113E+005	-1.861430175877645E+001	7.250605767166540E+001	
8.883176040722162E+005	-1.851892242640047E+001	7.176833309935270E+001	
8.941381241306819E+005	-1.839521227400203E+001	7.113288489703641E+001	
8.999967819605883E+005	-1.826016974309851E+001	7.045756824125634E+001	
9.058938274519104E+005	-1.815429327602494E+001	7.007249311473768E+001	
9.118295121319760E+005	-1.802670511397162E+001	6.908637054360372E+001	
9.178040891761945E+005	-1.790625261226573E+001	6.841831333755594E+001	
9.238178134188557E+005	-1.777372228972861E+001	6.764752073022794E+001	
9.298709413639989E+005	-1.765248697566162E+001	6.684008689265107E+001	
9.359637311963543E+005	-1.751914994318015E+001	6.613806253508651E+001	
9.420964427923544E+005	-1.739394351114444E+001	6.531667443563332E+001	
9.482693377312193E+005	-1.725644489417459E+001	6.442393928492007E+001	
9.544826793061136E+005	-1.710731356951214E+001	6.363527068950712E+001	
9.607367325353769E+005	-1.696163066142100E+001	6.286813691208162E+001	
9.670317641738271E+005	-1.685894663813765E+001	6.174145827843604E+001	
9.733680427241389E+005	-1.666947497508249E+001	6.097752258369913E+001	
9.797458384482961E+005	-1.653613049843967E+001	5.976072317288193E+001	
9.861654233791188E+005	-1.638739910093223E+001	5.896222226663402E+001	
9.926270713318669E+005	-1.625856454770467E+001	5.799378115198028E+001	
9.991310579159191E+005	-1.609000451634858E+001	5.684188574632657E+001	
1.005677660546528E+006	-1.592540169259914E+001	5.587728576514408E+001	
1.012267158456654E+006	-1.577938884566329E+001	5.450820545315023E+001	
1.018899832708873E+006	-1.562403763065134E+001	5.317707565207194E+001	
1.025575966207368E+006	-1.545914382530726E+001	5.201581563266288E+001	
1.032295843709993E+006	-1.529805887560469E+001	4.994032259123872E+001	
1.039059751840419E+006	-1.518711294047388E+001	4.931864472911199E+001	
1.045867979100362E+006	-1.493686881168659E+001	4.758206993513711E+001	
1.052720815881885E+006	-1.495067040347016E+001	4.720773617522461E+001	
1.059618554479787E+006	-1.481226828936621E+001	4.518707072555892E+001	
1.066561489104068E+006	-1.449788805113846E+001	4.357519880504277E+001	
1.073549915892481E+006	-1.438121789773531E+001	4.252387321780151E+001	
1.080584132923160E+006	-1.426970925218705E+001	4.048944878457404E+001	
1.087664440227334E+006	-1.396572760387180E+001	3.894033780353594E+001	
1.094791139802127E+006	-1.375378469024428E+001	3.667533689346995E+001	
1.101964535623438E+006	-1.357638236003174E+001	3.482802958300611E+001	
1.109184933658906E+006	-1.334779354891927E+001	3.216790421594556E+001	
1.116452641880958E+006	-1.315802602324453E+001	2.946923310548062E+001	
1.123767970279951E+006	-1.302103190270835E+001	2.597947803252006E+001	
1.131131230877389E+006	-1.298196307467594E+001	2.249992934743127E+001	
1.138542737739234E+006	-1.305649769408455E+001	2.070446701319038E+001	
1.146002806989300E+006	-1.282649200576963E+001	1.808750932880048E+001	
1.153511756822739E+006	-1.268311111961404E+001	1.507860960868581E+001	
1.161069907519612E+006	-1.274944566557393E+001	1.057176233541509E+001	
1.168677581458549E+006	-1.281992565921760E+001	9.374603079154293E+000	
1.176335103130500E+006	-1.268639194140365E+001	4.474840950990220E+000	
1.184042799152576E+006	-1.269198830358319E+001	1.938276632155128E+000	
1.191800998281983E+006	-1.262855827780004E+001	-1.522531866459992E+000	
1.199610031430037E+006	-1.244705661057254E+001	-5.292909887013199E+000	
1.207470231676285E+006	-1.284756550958720E+001	-9.634346203108748E+000	
1.215381934282710E+006	-1.263570663351962E+001	-1.570639685207027E+001	
1.223345476708032E+006	-1.299061458128171E+001	-2.042946187018759E+001	
1.231361198622098E+006	-1.322792982500579E+001	-2.401661960250051E+001	
1.239429441920374E+006	-1.366115531750101E+001	-2.751366282991273E+001	
1.247550550738526E+006	-1.409689600702030E+001	-3.065687723326509E+001	
1.255724871467098E+006	-1.476957013182895E+001	-3.485722138730366E+001	
1.263952752766290E+006	-1.463050239546574E+001	-3.664104854885566E+001	
1.272234545580823E+006	-1.498895161572222E+001	-4.219086259518372E+001	
1.280570603154916E+006	-1.554607056009217E+001	-4.621416696549911E+001	
1.288961281047345E+006	-1.622932492670477E+001	-5.000405642611170E+001	
1.297406937146615E+006	-1.673866216925089E+001	-5.219961166025545E+001	
1.305907931686222E+006	-1.731077726256486E+001	-5.619448843188492E+001	
1.314464627260017E+006	-1.793846216999701E+001	-5.822476534544785E+001	
1.323077388837675E+006	-1.872498469433231E+001	-6.097294279021132E+001	
1.331746583780260E+006	-1.932578888941844E+001	-6.332168682255865E+001	
1.340472581855894E+006	-1.998784941311423E+001	-6.498159714500235E+001	
1.349255755255530E+006	-2.071079685589812E+001	-6.746326837432451E+001	
1.358096478608826E+006	-2.143176390635265E+001	-6.923100717587433E+001	
1.366995129000124E+006	-2.229937864343233E+001	-7.128655749752853E+001	
1.375952085984535E+006	-2.314142733011191E+001	-7.236412194492942E+001	
1.384967731604127E+006	-2.404559672350001E+001	-7.366364043825541E+001	
1.394042450404222E+006	-2.482541126070432E+001	-7.360730704355214E+001	
1.403176629449796E+006	-2.589505411131965E+001	-7.420331594108225E+001	
1.412370658341988E+006	-2.664615461522763E+001	-7.508177459727786E+001	
1.421624929234721E+006	-2.745363022622131E+001	-7.459856209481841E+001	
1.430939836851426E+006	-2.836599047129892E+001	-7.585146511466496E+001	
1.440315778501879E+006	-2.957901635991222E+001	-7.671836373114188E+001	
1.449753154099146E+006	-3.088503186057062E+001	-7.565626786995235E+001	
1.459252366176646E+006	-3.215875686525627E+001	-7.467326959003157E+001	
1.468813819905310E+006	-3.368903807848609E+001	-7.290405478092397E+001	
1.478437923110874E+006	-3.536661346144727E+001	-6.983238899565656E+001	
1.488125086291267E+006	-3.717065173456262E+001	-6.408612587807252E+001	
1.497875722634121E+006	-3.907902308028413E+001	-5.703709791114298E+001	
1.507690248034399E+006	-4.127421640668854E+001	-4.406672720749184E+001	
1.517569081112128E+006	-4.283649944269995E+001	-2.385502018805447E+001	
1.527512643230257E+006	-4.260118983240293E+001	-1.115076274386572E+000	
1.537521358512634E+006	-4.214503104586628E+001	1.717194790684379E+001	
1.547595653862087E+006	-4.023251244170672E+001	3.158576237431472E+001	
1.557735958978641E+006	-3.894293932999222E+001	3.965155040620265E+001	
1.567942706377842E+006	-3.745656716940983E+001	4.659296363436116E+001	
1.578216331409205E+006	-3.613643863954879E+001	4.968027097048998E+001	
1.588557272274786E+006	-3.506361042558054E+001	5.228902892767589E+001	
1.598965970047869E+006	-3.410676724246223E+001	5.509233069977403E+001	
1.609442868691781E+006	-3.329563655328266E+001	5.598626540630986E+001	
1.619988415078829E+006	-3.252587997285581E+001	5.771381504277122E+001	
1.630603059009359E+006	-3.177184176418244E+001	5.820881975980108E+001	
1.641287253230943E+006	-3.111339970641336E+001	5.845256496076364E+001	
1.652041453457688E+006	-3.052821764636596E+001	5.888337794672738E+001	
1.662866118389675E+006	-3.000765927460258E+001	5.872793966042274E+001	
1.673761709732524E+006	-2.955414515476976E+001	5.897433116877208E+001	
1.684728692217088E+006	-2.909630877069681E+001	5.848648638781702E+001	
1.695767533619273E+006	-2.866678865889254E+001	5.848974030175589E+001	
1.706878704779991E+006	-2.828236799918141E+001	5.816779388516948E+001	
1.718062679625245E+006	-2.797316611306728E+001	5.767736285972543E+001	
1.729319935186339E+006	-2.759533447779525E+001	5.750009613022532E+001	
1.740650951620230E+006	-2.730399340479284E+001	5.702488066924619E+001	
1.752056212230003E+006	-2.706082979629693E+001	5.661986112984184E+001	
1.763536203485489E+006	-2.676366626199023E+001	5.647328708685289E+001	
1.775091415044016E+006	-2.651645040596107E+001	5.584054853466893E+001	
1.786722339771287E+006	-2.630549780481473E+001	5.573336769892597E+001	
1.798429473762410E+006	-2.608252503913834E+001	5.548670534111572E+001	
1.810213316363056E+006	-2.582798100866885E+001	5.508632750686706E+001	
1.822074370190755E+006	-2.563317141792484E+001	5.455676655972132E+001	
1.834013141156335E+006	-2.543466749060119E+001	5.459703851114077E+001	
1.846030138485505E+006	-2.522869096257582E+001	5.421234733845787E+001	
1.858125874740568E+006	-2.501238054279331E+001	5.404190344745199E+001	
1.870300865842289E+006	-2.483453905149231E+001	5.374158483474466E+001	
1.882555631091898E+006	-2.461463111360501E+001	5.324353040901634E+001	
1.894890693193242E+006	-2.443902342556685E+001	5.260391942343917E+001	
1.907306578275076E+006	-2.425504767108251E+001	5.247050969250304E+001	
1.919803815913509E+006	-2.408389265172181E+001	5.179466428678627E+001	
1.932382939154587E+006	-2.393174593783311E+001	5.121194145209525E+001	
1.945044484537033E+006	-2.377951239546979E+001	5.035752438201854E+001	
1.957788992115130E+006	-2.368204716965595E+001	4.993159296353677E+001	
1.970617005481758E+006	-2.353345148552532E+001	4.968798764087805E+001	
1.983529071791577E+006	-2.341521444446610E+001	4.897416513311686E+001	
1.996525741784367E+006	-2.326327066796821E+001	4.859202649044281E+001	
2.009607569808519E+006	-2.317732205134217E+001	4.786268862587387E+001	
2.022775113844676E+006	-2.308610290487365E+001	4.747603044028622E+001	
2.036028935529539E+006	-2.298864734492398E+001	4.719159503653306E+001	
2.049369600179817E+006	-2.283101414338695E+001	4.677693870095823E+001	
2.062797676816343E+006	-2.273133454076554E+001	4.619933865827760E+001	
2.076313738188340E+006	-2.265145315338035E+001	4.552178167833125E+001	
2.089918360797857E+006	-2.259618596510209E+001	4.524653368307961E+001	
2.103612124924354E+006	-2.247724929659685E+001	4.471458678402620E+001	
2.117395614649452E+006	-2.249536187672396E+001	4.432966146124438E+001	
2.131269417881852E+006	-2.232800211150856E+001	4.419260231836739E+001	
2.145234126382402E+006	-2.219023166205616E+001	4.352048449385013E+001	
2.159290335789346E+006	-2.214573183791093E+001	4.304567680568827E+001	
2.173438645643724E+006	-2.203866170868270E+001	4.239945691802552E+001	
2.187679659414948E+006	-2.198645545902922E+001	4.220515302434342E+001	
2.202013984526541E+006	-2.198464224224469E+001	4.131078894670192E+001	
2.216442232382041E+006	-2.188811698622947E+001	4.119453898942076E+001	
2.230965018391088E+006	-2.181003962625602E+001	4.129277179995118E+001	
2.245582961995665E+006	-2.169177833980399E+001	4.092376337529397E+001	
2.260296686696523E+006	-2.160932244388700E+001	4.049223477556627E+001	
2.275106820079775E+006	-2.148549115207897E+001	3.991199181567116E+001	
2.290013993843664E+006	-2.142129829857952E+001	3.907071723988724E+001	
2.305018843825507E+006	-2.138127720256523E+001	3.871854599902984E+001	
2.320122010028816E+006	-2.126942772363216E+001	3.716900412087529E+001	
2.335324136650594E+006	-2.123025153962696E+001	3.666482660314942E+001	
2.350625872108815E+006	-2.140402060654390E+001	3.635610966222575E+001	
2.366027869070079E+006	-2.136443600232532E+001	3.676212760926590E+001	
2.381530784477451E+006	-2.130164418804210E+001	3.685132544874150E+001	
2.397135279578482E+006	-2.134298308337276E+001	3.507733121134056E+001	
2.412842019953412E+006	-2.140038762332866E+001	3.554402526327992E+001	
2.428651675543560E+006	-2.156199369272164E+001	3.550379993692916E+001	
2.444564920679900E+006	-2.144563076005983E+001	3.564213591282676E+001	
2.460582434111821E+006	-2.131073272652820E+001	3.639872871987631E+001	
2.476704899036080E+006	-2.116909758814713E+001	3.682237938333543E+001	
2.492933003125940E+006	-2.104667294250882E+001	3.683079943350700E+001	
2.509267438560506E+006	-2.097154046613741E+001	3.650693735567766E+001	
2.525708902054241E+006	-2.094324896995513E+001	3.636509523332833E+001	
2.542258094886692E+006	-2.077757672703213E+001	3.646464396753368E+001	
2.558915722932395E+006	-2.066462130027011E+001	3.614344599905898E+001	
2.575682496690984E+006	-2.058817867446198E+001	3.587064910916013E+001	
2.592559131317500E+006	-2.041341048284209E+001	3.580280011495465E+001	
2.609546346652889E+006	-2.046005278183962E+001	3.513291497832120E+001	
2.626644867254709E+006	-2.035448599580122E+001	3.532590117378503E+001	
2.643855422428036E+006	-2.022255981411307E+001	3.511127750022400E+001	
2.661178746256564E+006	-2.011390030296757E+001	3.444793348518316E+001	
2.678615577633925E+006	-2.003041588573945E+001	3.409501229154549E+001	
2.696166660295199E+006	-1.992040629707559E+001	3.359595673383043E+001	
2.713832742848640E+006	-1.983281537273661E+001	3.301195293608409E+001	
2.731614578807603E+006	-1.976706529528953E+001	3.237843992834072E+001	
2.749512926622687E+006	-1.969123567994765E+001	3.179915586458388E+001	
2.767528549714084E+006	-1.965260996474339E+001	3.134081268210576E+001	
2.785662216504141E+006	-1.961337670013838E+001	3.115823492330827E+001	
2.803914700450135E+006	-1.953610456207765E+001	3.067581368911170E+001	
2.822286780077266E+006	-1.946024119138466E+001	3.040303019817223E+001	
2.840779239011859E+006	-1.937496089776825E+001	2.990914835237027E+001	
2.859392866014794E+006	-1.928852999049548E+001	2.930797416561445E+001	
2.878128455015144E+006	-1.923154087416513E+001	2.868536721948270E+001	
2.896986805144040E+006	-1.915599668066180E+001	2.840586965786710E+001	
2.915968720768759E+006	-1.909509991730015E+001	2.777580771107301E+001	
2.935075011527028E+006	-1.905705233263297E+001	2.724928020287410E+001	
2.954306492361563E+006	-1.899829273102459E+001	2.670593493848652E+001	
2.973663983554823E+006	-1.894344912744063E+001	2.623902536785469E+001	
2.993148310764003E+006	-1.887414580082471E+001	2.574412374876528E+001	
3.012760305056247E+006	-1.880881554181931E+001	2.520885088305902E+001	
3.032500802944099E+006	-1.875722092898484E+001	2.459566408337832E+001	
3.052370646421178E+006	-1.872074277419942E+001	2.404990969509694E+001	
3.072370682998098E+006	-1.865987710242658E+001	2.353952895060271E+001	
