# Version 1.00
#
# Ref Impedances: Z01: 50, Z02: 50
# 
freq[Hz]	db:Trc9_S21	ang:Trc9_S21	
5.000000000000000E+005	-3.590326300904466E+001	8.356000281834400E+001	
5.032761480982608E+005	-3.584582871771504E+001	8.336476335435336E+001	
5.065737624892451E+005	-3.578045710557595E+001	8.311868837475285E+001	
5.098929838264610E+005	-3.572309961061279E+001	8.285507475646286E+001	
5.132339536850202E+005	-3.566479209835461E+001	8.263288691101057E+001	
5.165968145676763E+005	-3.560584876210874E+001	8.239172824110422E+001	
5.199817099109033E+005	-3.554604206369837E+001	8.213303707718974E+001	
5.233887840910133E+005	-3.549677662655286E+001	8.191439944299845E+001	
5.268181824303150E+005	-3.543905895386199E+001	8.165653770600035E+001	
5.302700512033115E+005	-3.539475437882742E+001	8.138044744562892E+001	
5.337445376429403E+005	-3.534042949688220E+001	8.111034540800615E+001	
5.372417899468524E+005	-3.528757432758947E+001	8.088211553538521E+001	
5.407619572837337E+005	-3.523978729667484E+001	8.064284936950195E+001	
5.443051897996675E+005	-3.518046930050220E+001	8.035644330543522E+001	
5.478716386245388E+005	-3.513336805318802E+001	8.008907273703539E+001	
5.514614558784805E+005	-3.508688561841214E+001	7.983402616082148E+001	
5.550747946783613E+005	-3.503461055589980E+001	7.953137692748911E+001	
5.587118091443173E+005	-3.497641454612570E+001	7.923863605977464E+001	
5.623726544063253E+005	-3.493118125017041E+001	7.897042373876253E+001	
5.660574866108197E+005	-3.488898922593928E+001	7.864946388729356E+001	
5.697664629273524E+005	-3.484470915861748E+001	7.831420327217381E+001	
5.734997415552969E+005	-3.479397996605328E+001	7.796766556718789E+001	
5.772574817305958E+005	-3.475718508754977E+001	7.769623491177197E+001	
5.810398437325528E+005	-3.471950893392041E+001	7.736447245805800E+001	
5.848469888906692E+005	-3.468117808731797E+001	7.704281516924772E+001	
5.886790795915247E+005	-3.464835015245388E+001	7.670052838761039E+001	
5.925362792857041E+005	-3.461095114307521E+001	7.638794136451455E+001	
5.964187524947689E+005	-3.457924611348063E+001	7.609256561755817E+001	
6.003266648182746E+005	-3.454896820035313E+001	7.580012882095404E+001	
6.042601829408339E+005	-3.451951035321312E+001	7.548282169405626E+001	
6.082194746392266E+005	-3.448824655807636E+001	7.518034490173014E+001	
6.122047087895556E+005	-3.446333873273424E+001	7.486090456559735E+001	
6.162160553744501E+005	-3.444065025170105E+001	7.461571437958286E+001	
6.202536854903157E+005	-3.441469710418946E+001	7.428083107667420E+001	
6.243177713546323E+005	-3.439528655626077E+001	7.403329850273312E+001	
6.284084863133002E+005	-3.437536932415987E+001	7.372491926151383E+001	
6.325260048480327E+005	-3.433274604589960E+001	7.360992252875619E+001	
6.366705025837995E+005	-3.432795245692829E+001	7.315506409119922E+001	
6.408421562963169E+005	-3.430821686028835E+001	7.291352119460470E+001	
6.450411439195880E+005	-3.429718454204539E+001	7.262811220091511E+001	
6.492676445534922E+005	-3.427500060891003E+001	7.238298217505349E+001	
6.535218384714247E+005	-3.425948244852470E+001	7.210252601142645E+001	
6.578039071279848E+005	-3.424495357531405E+001	7.189613321152433E+001	
6.621140331667166E+005	-3.423740440070908E+001	7.161248576907923E+001	
6.664524004278985E+005	-3.422007218650066E+001	7.142535485850571E+001	
6.708191939563849E+005	-3.420690478020413E+001	7.117687108257645E+001	
6.752146000094990E+005	-3.419184382781922E+001	7.096449208167600E+001	
6.796388060649771E+005	-3.418087548018492E+001	7.075640826275362E+001	
6.840920008289651E+005	-3.414856191246717E+001	7.045630246139729E+001	
6.885743742440676E+005	-3.415146830222773E+001	7.031360329269177E+001	
6.930861174974493E+005	-3.412897444789061E+001	7.004305928623320E+001	
6.976274230289898E+005	-3.412325453728516E+001	6.989696943124230E+001	
7.021984845394918E+005	-3.410043305807505E+001	6.965117162651028E+001	
7.067994969989432E+005	-3.408559351586392E+001	6.946234154696550E+001	
7.114306566548328E+005	-3.408090391348294E+001	6.921569837794986E+001	
7.160921610405211E+005	-3.406894257834538E+001	6.896461087074341E+001	
7.207842089836659E+005	-3.405628880948968E+001	6.870154789331092E+001	
7.255070006147025E+005	-3.405782105684560E+001	6.848226525745736E+001	
7.302607373753800E+005	-3.404715912694169E+001	6.831074508783314E+001	
7.350456220273539E+005	-3.403898164291989E+001	6.802609496727156E+001	
7.398618586608336E+005	-3.402570247015302E+001	6.776179524637843E+001	
7.447096527032884E+005	-3.402685187677004E+001	6.754803947161815E+001	
7.495892109282091E+005	-3.403482145210312E+001	6.732152725090788E+001	
7.545007414639277E+005	-3.402988160869786E+001	6.716690139164442E+001	
7.594444538024946E+005	-3.402338962058862E+001	6.691153753483752E+001	
7.644205588086142E+005	-3.400810766061912E+001	6.677025866175728E+001	
7.694292687286388E+005	-3.401069704556478E+001	6.646076653482075E+001	
7.744707971996219E+005	-3.400975268385675E+001	6.616625276169006E+001	
7.795453592584301E+005	-3.402372718800280E+001	6.598132983967741E+001	
7.846531713509152E+005	-3.403649983818468E+001	6.559604745668003E+001	
7.897944513411465E+005	-3.404771381070705E+001	6.554654942497425E+001	
7.949694185207030E+005	-3.404874304137301E+001	6.520599182518491E+001	
8.001782936180272E+005	-3.406896637848855E+001	6.496093685206223E+001	
8.054212988078399E+005	-3.407545894510231E+001	6.459221463003122E+001	
8.106986577206160E+005	-3.411491607640917E+001	6.428283081393268E+001	
8.160105954521240E+005	-3.413767683477006E+001	6.405843887041753E+001	
8.213573385730264E+005	-3.419658586344459E+001	6.384370080587496E+001	
8.267391151385435E+005	-3.421447617270378E+001	6.369303622834629E+001	
8.321561546981814E+005	-3.423989187886512E+001	6.329097837786841E+001	
8.376086883055224E+005	-3.426603154587522E+001	6.330017443586383E+001	
8.430969485280803E+005	-3.428422414214496E+001	6.290583597566997E+001	
8.486211694572198E+005	-3.435930176851304E+001	6.260407797266284E+001	
8.541815867181420E+005	-3.443575159184833E+001	6.237345630972042E+001	
8.597784374799342E+005	-3.442606575939114E+001	6.236492859785689E+001	
8.654119604656852E+005	-3.453753311177455E+001	6.204069311813863E+001	
8.710823959626689E+005	-3.459715834291897E+001	6.169632449574655E+001	
8.767899858325921E+005	-3.466463609593304E+001	6.164341485571671E+001	
8.825349735219113E+005	-3.476989723850852E+001	6.155525685836607E+001	
8.883176040722162E+005	-3.484513719385566E+001	6.129500802891209E+001	
8.941381241306819E+005	-3.492988971642755E+001	6.163089391694643E+001	
8.999967819605883E+005	-3.499314536146029E+001	6.098519403283978E+001	
9.058938274519104E+005	-3.511193933370983E+001	6.124831940239024E+001	
9.118295121319760E+005	-3.523596144306794E+001	6.098880377386639E+001	
9.178040891761945E+005	-3.539518779709362E+001	6.117287719669486E+001	
9.238178134188557E+005	-3.550917607720792E+001	6.127869239943305E+001	
9.298709413639989E+005	-3.564977266152842E+001	6.144463391096372E+001	
9.359637311963543E+005	-3.577540962978767E+001	6.163637083374355E+001	
9.420964427923544E+005	-3.590861881273814E+001	6.193213705361353E+001	
9.482693377312193E+005	-3.611382294289233E+001	6.220105875064451E+001	
9.544826793061136E+005	-3.629077206846342E+001	6.242078889899000E+001	
9.607367325353769E+005	-3.647396335957204E+001	6.290481956122527E+001	
9.670317641738271E+005	-3.662887870953229E+001	6.401949795622902E+001	
9.733680427241389E+005	-3.688590818571812E+001	6.409605207671670E+001	
9.797458384482961E+005	-3.708877604743537E+001	6.549928846932137E+001	
9.861654233791188E+005	-3.727755431027623E+001	6.604806915978890E+001	
9.926270713318669E+005	-3.753078149550043E+001	6.734608406340351E+001	
9.991310579159191E+005	-3.778393182698227E+001	6.827029901246029E+001	
1.005677660546528E+006	-3.806240142539804E+001	6.942730568681043E+001	
1.012267158456654E+006	-3.835608870002768E+001	7.150724338110116E+001	
1.018899832708873E+006	-3.853925927007963E+001	7.476269813829285E+001	
1.025575966207368E+006	-3.882588593399910E+001	7.624027484979858E+001	
1.032295843709993E+006	-3.903398380094479E+001	8.246142147057188E+001	
1.039059751840419E+006	-3.914174253559985E+001	8.265784804410151E+001	
1.045867979100362E+006	-3.966583414069624E+001	8.886089698627346E+001	
1.052720815881885E+006	-3.944592574938414E+001	8.892992792722876E+001	
1.059618554479787E+006	-3.941985199893639E+001	9.365466467778489E+001	
1.066561489104068E+006	-3.974831898301650E+001	9.927917322737442E+001	
1.073549915892481E+006	-3.960484795249036E+001	1.031887693513758E+002	
1.080584132923160E+006	-3.949467614151410E+001	1.085955612657256E+002	
1.087664440227334E+006	-3.928872140133976E+001	1.135438887172255E+002	
1.094791139802127E+006	-3.903125928404043E+001	1.206492219823729E+002	
1.101964535623438E+006	-3.848064270552715E+001	1.261907091359820E+002	
1.109184933658906E+006	-3.752185421683222E+001	1.300917581770162E+002	
1.116452641880958E+006	-3.689693851385640E+001	1.336037896148252E+002	
1.123767970279951E+006	-3.583351357221612E+001	1.363236875922772E+002	
1.131131230877389E+006	-3.466701880816228E+001	1.378174309842023E+002	
1.138542737739234E+006	-3.429413778988764E+001	1.359202785463912E+002	
1.146002806989300E+006	-3.356146992480944E+001	1.377297263770623E+002	
1.153511756822739E+006	-3.301788792599637E+001	1.397785002603492E+002	
1.161069907519612E+006	-3.204599737246032E+001	1.386326762877644E+002	
1.168677581458549E+006	-3.178551992581208E+001	1.375887787493698E+002	
1.176335103130500E+006	-3.098441287248268E+001	1.382198522622042E+002	
1.184042799152576E+006	-3.062870310186481E+001	1.379500659901360E+002	
1.191800998281983E+006	-3.002748811076087E+001	1.372654191966351E+002	
1.199610031430037E+006	-2.937086194524333E+001	1.384169848432617E+002	
1.207470231676285E+006	-2.876835851245114E+001	1.354503973949174E+002	
1.215381934282710E+006	-2.803380035601781E+001	1.355084512158338E+002	
1.223345476708032E+006	-2.752061138680173E+001	1.329825251779832E+002	
1.231361198622098E+006	-2.710894330157074E+001	1.313750929913628E+002	
1.239429441920374E+006	-2.675036354349747E+001	1.285263219237329E+002	
1.247550550738526E+006	-2.636308387635892E+001	1.271362329724932E+002	
1.255724871467098E+006	-2.595760336530823E+001	1.240573699527407E+002	
1.263952752766290E+006	-2.571190736761560E+001	1.240066523564145E+002	
1.272234545580823E+006	-2.528121238872400E+001	1.222308216137523E+002	
1.280570603154916E+006	-2.492236057458081E+001	1.200869393486762E+002	
1.288961281047345E+006	-2.460573800629563E+001	1.176668185274388E+002	
1.297406937146615E+006	-2.443075442602815E+001	1.157405456152394E+002	
1.305907931686222E+006	-2.413902838018714E+001	1.137351773451637E+002	
1.314464627260017E+006	-2.395920826883656E+001	1.117056431321379E+002	
1.323077388837675E+006	-2.377572485020820E+001	1.094361322740519E+002	
1.331746583780260E+006	-2.361555041542771E+001	1.074895357467740E+002	
1.340472581855894E+006	-2.347724658137917E+001	1.057806820190702E+002	
1.349255755255530E+006	-2.333473998956144E+001	1.039168400466760E+002	
1.358096478608826E+006	-2.323347420636230E+001	1.020619583618550E+002	
1.366995129000124E+006	-2.311525524214045E+001	1.002461465312681E+002	
1.375952085984535E+006	-2.303415356565185E+001	9.864079835134048E+001	
1.384967731604127E+006	-2.295172180462488E+001	9.689782204707700E+001	
1.394042450404222E+006	-2.292098398654741E+001	9.551578803355733E+001	
1.403176629449796E+006	-2.287426917843899E+001	9.400356056860404E+001	
1.412370658341988E+006	-2.281466883179090E+001	9.279471924741466E+001	
1.421624929234721E+006	-2.275570023257306E+001	9.171991671624122E+001	
1.430939836851426E+006	-2.269365734095572E+001	9.039864724361910E+001	
1.440315778501879E+006	-2.263666752226908E+001	8.920051609612639E+001	
1.449753154099146E+006	-2.261032190009678E+001	8.799274773704680E+001	
1.459252366176646E+006	-2.256415677457087E+001	8.697510519610603E+001	
1.468813819905310E+006	-2.253382672291865E+001	8.581440070894263E+001	
1.478437923110874E+006	-2.250410168334414E+001	8.480405933533542E+001	
1.488125086291267E+006	-2.247749389889206E+001	8.379115950362386E+001	
1.497875722634121E+006	-2.243658645028924E+001	8.288302728446770E+001	
1.507690248034399E+006	-2.241445037342021E+001	8.193665730175792E+001	
1.517569081112128E+006	-2.238692360485828E+001	8.106902250374115E+001	
1.527512643230257E+006	-2.237096345998138E+001	8.021025047551898E+001	
1.537521358512634E+006	-2.234335095401679E+001	7.945660668197196E+001	
1.547595653862087E+006	-2.232135820260226E+001	7.865898936052929E+001	
1.557735958978641E+006	-2.229663509101424E+001	7.793091710217179E+001	
1.567942706377842E+006	-2.226671855612743E+001	7.719408664020452E+001	
1.578216331409205E+006	-2.225181971563153E+001	7.651263211541813E+001	
1.588557272274786E+006	-2.221797919801993E+001	7.583182201945722E+001	
1.598965970047869E+006	-2.219091169409083E+001	7.512005037465900E+001	
1.609442868691781E+006	-2.216113899056266E+001	7.447892721912800E+001	
1.619988415078829E+006	-2.212534357178285E+001	7.377920383273224E+001	
1.630603059009359E+006	-2.210541109921851E+001	7.312206001418592E+001	
1.641287253230943E+006	-2.208021367293379E+001	7.245273107454808E+001	
1.652041453457688E+006	-2.205553555551313E+001	7.183004896593862E+001	
1.662866118389675E+006	-2.203566488605969E+001	7.123742011899236E+001	
1.673761709732524E+006	-2.200880600073064E+001	7.066909358244376E+001	
1.684728692217088E+006	-2.198529450800233E+001	7.009915699262909E+001	
1.695767533619273E+006	-2.196194753182266E+001	6.948658135073873E+001	
1.706878704779991E+006	-2.194225091465293E+001	6.893837980327830E+001	
1.718062679625245E+006	-2.192065133781486E+001	6.843938852319343E+001	
1.729319935186339E+006	-2.189670321167113E+001	6.784992388882266E+001	
1.740650951620230E+006	-2.187556952384863E+001	6.735751890745553E+001	
1.752056212230003E+006	-2.186052150223924E+001	6.686706503807226E+001	
1.763536203485489E+006	-2.183347920561477E+001	6.641896166924114E+001	
1.775091415044016E+006	-2.181296305894255E+001	6.595894493111824E+001	
1.786722339771287E+006	-2.177936747236680E+001	6.552361386825342E+001	
1.798429473762410E+006	-2.175189010262438E+001	6.508620096900771E+001	
1.810213316363056E+006	-2.172514680755688E+001	6.460990360799801E+001	
1.822074370190755E+006	-2.169800113742284E+001	6.424600613695161E+001	
1.834013141156335E+006	-2.164875886658834E+001	6.381491318422755E+001	
1.846030138485505E+006	-2.161424675196015E+001	6.333114274014149E+001	
1.858125874740568E+006	-2.157287777703785E+001	6.286911165669857E+001	
1.870300865842289E+006	-2.153987653221888E+001	6.238385173776184E+001	
1.882555631091898E+006	-2.150145813051186E+001	6.181839941837215E+001	
1.894890693193242E+006	-2.146890282661437E+001	6.136917328349696E+001	
1.907306578275076E+006	-2.144365722193627E+001	6.079785285536894E+001	
1.919803815913509E+006	-2.142202914631845E+001	6.034777435045113E+001	
1.932382939154587E+006	-2.140002579746434E+001	5.984803225461519E+001	
1.945044484537033E+006	-2.138402426664192E+001	5.941693974269075E+001	
1.957788992115130E+006	-2.135883626752549E+001	5.908822772379951E+001	
1.970617005481758E+006	-2.133506460841372E+001	5.853962391386971E+001	
1.983529071791577E+006	-2.131759886626701E+001	5.816616675373561E+001	
1.996525741784367E+006	-2.130153784552965E+001	5.770373238489564E+001	
2.009607569808519E+006	-2.127636478541674E+001	5.736162225101092E+001	
2.022775113844676E+006	-2.124702600965175E+001	5.694454527887231E+001	
2.036028935529539E+006	-2.122351512520964E+001	5.655519728283218E+001	
2.049369600179817E+006	-2.120344428446895E+001	5.608854561169493E+001	
2.062797676816343E+006	-2.119109908186329E+001	5.569466781477743E+001	
2.076313738188340E+006	-2.117054186210389E+001	5.539513195832406E+001	
2.089918360797857E+006	-2.114496791593166E+001	5.506400038457978E+001	
2.103612124924354E+006	-2.112501397288504E+001	5.469736043568638E+001	
2.117395614649452E+006	-2.107600858922073E+001	5.444049984673220E+001	
2.131269417881852E+006	-2.106108873845381E+001	5.392673357948761E+001	
2.145234126382402E+006	-2.105352917704547E+001	5.356215237061240E+001	
2.159290335789346E+006	-2.103354905854729E+001	5.333773842029804E+001	
2.173438645643724E+006	-2.102353468900466E+001	5.300199962474564E+001	
2.187679659414948E+006	-2.098107661457549E+001	5.276699989379016E+001	
2.202013984526541E+006	-2.095240432174848E+001	5.267259189023972E+001	
2.216442232382041E+006	-2.091777038306858E+001	5.231620234817687E+001	
2.230965018391088E+006	-2.085454748814664E+001	5.194565291724365E+001	
2.245582961995665E+006	-2.082316441514784E+001	5.154356848884108E+001	
2.260296686696523E+006	-2.078975814455331E+001	5.113435993513561E+001	
2.275106820079775E+006	-2.076999831547067E+001	5.073388123318242E+001	
2.290013993843664E+006	-2.076448836502776E+001	5.043827856612827E+001	
2.305018843825507E+006	-2.073547834437053E+001	5.014601760963632E+001	
2.320122010028816E+006	-2.075642781465014E+001	5.007068434537770E+001	
2.335324136650594E+006	-2.071805363364735E+001	4.978003341661702E+001	
2.350625872108815E+006	-2.066958765107870E+001	5.006921339054787E+001	
2.366027869070079E+006	-2.059287454810838E+001	4.955116055252795E+001	
2.381530784477451E+006	-2.053907034397853E+001	4.915777360610492E+001	
2.397135279578482E+006	-2.056836734418619E+001	4.921285905576595E+001	
2.412842019953412E+006	-2.047563743415956E+001	4.904734299959865E+001	
2.428651675543560E+006	-2.040577437840270E+001	4.935131499076271E+001	
2.444564920679900E+006	-2.032083570957274E+001	4.879569862999162E+001	
2.460582434111821E+006	-2.025080362330765E+001	4.827801657568600E+001	
2.476704899036080E+006	-2.018943050413503E+001	4.775319738293879E+001	
2.492933003125940E+006	-2.013382402849690E+001	4.739541223557171E+001	
2.509267438560506E+006	-2.008501063328327E+001	4.699334598165576E+001	
2.525708902054241E+006	-2.001897724736159E+001	4.677512500680570E+001	
2.542258094886692E+006	-1.995654811614605E+001	4.617189714242356E+001	
2.558915722932395E+006	-1.990622431889710E+001	4.578248383973936E+001	
2.575682496690984E+006	-1.984326507991114E+001	4.544429264855319E+001	
2.592559131317500E+006	-1.979796888885181E+001	4.493103308390423E+001	
2.609546346652889E+006	-1.973946570271868E+001	4.464737728601829E+001	
2.626644867254709E+006	-1.966011290303144E+001	4.414292295756683E+001	
2.643855422428036E+006	-1.961009526911114E+001	4.353894079239524E+001	
2.661178746256564E+006	-1.957616636463631E+001	4.302241766874736E+001	
2.678615577633925E+006	-1.952447462970462E+001	4.245697547385601E+001	
2.696166660295199E+006	-1.949785673930454E+001	4.191453223079107E+001	
2.713832742848640E+006	-1.946538109205716E+001	4.143886300496117E+001	
2.731614578807603E+006	-1.943978738145022E+001	4.101453210825208E+001	
2.749512926622687E+006	-1.940243445523687E+001	4.062400252973547E+001	
2.767528549714084E+006	-1.937135284799560E+001	4.017442554202970E+001	
2.785662216504141E+006	-1.932005959017113E+001	3.980738167080400E+001	
2.803914700450135E+006	-1.928487772329707E+001	3.930477372783462E+001	
2.822286780077266E+006	-1.924432603762866E+001	3.881014659304304E+001	
2.840779239011859E+006	-1.920794021878782E+001	3.837308738952917E+001	
2.859392866014794E+006	-1.917814549560692E+001	3.785669925742465E+001	
2.878128455015144E+006	-1.915160235814641E+001	3.737770614794850E+001	
2.896986805144040E+006	-1.911358768240632E+001	3.699653391144174E+001	
2.915968720768759E+006	-1.907872017556016E+001	3.649740403055841E+001	
2.935075011527028E+006	-1.905003895024375E+001	3.612817710548598E+001	
2.954306492361563E+006	-1.901421309751332E+001	3.567612372033770E+001	
2.973663983554823E+006	-1.898211485713109E+001	3.520069198147802E+001	
2.993148310764003E+006	-1.894474527231282E+001	3.478088408684197E+001	
3.012760305056247E+006	-1.891836179345924E+001	3.426580474249040E+001	
3.032500802944099E+006	-1.888599805670313E+001	3.384030393099090E+001	
3.052370646421178E+006	-1.885341951669226E+001	3.339680709337964E+001	
3.072370682998098E+006	-1.882943513912404E+001	3.295010931387872E+001	
3.092501765738611E+006	-1.879809700611088E+001	3.252508224777334E+001	
