# Version 1.00
#
# Ref Impedances: Z01: 50, Z02: 50
# 
freq[Hz]	db:Trc9_S21	ang:Trc9_S21	
5.000000000000000E+005	-3.590225549165017E+001	8.349766757986046E+001	
5.032761480982608E+005	-3.584464609593279E+001	8.331463561377956E+001	
5.065737624892451E+005	-3.578329952769931E+001	8.306409264099789E+001	
5.098929838264610E+005	-3.571867838304353E+001	8.281805059295158E+001	
5.132339536850202E+005	-3.566357946269547E+001	8.259332177282083E+001	
5.165968145676763E+005	-3.560740300522469E+001	8.233170984613913E+001	
5.199817099109033E+005	-3.555270734831483E+001	8.210551873684220E+001	
5.233887840910133E+005	-3.550155408379223E+001	8.186879712170773E+001	
5.268181824303150E+005	-3.544413360338466E+001	8.162738382381146E+001	
5.302700512033115E+005	-3.539338596231661E+001	8.136318770524196E+001	
5.337445376429403E+005	-3.533930483739749E+001	8.107990442162280E+001	
5.372417899468524E+005	-3.528820883145519E+001	8.082709906031720E+001	
5.407619572837337E+005	-3.524233619553797E+001	8.056049417903355E+001	
5.443051897996675E+005	-3.518342761541310E+001	8.031018913248578E+001	
5.478716386245388E+005	-3.513083798785544E+001	8.002619725753031E+001	
5.514614558784805E+005	-3.508686061062794E+001	7.978454943391752E+001	
5.550747946783613E+005	-3.502858842120891E+001	7.952816488657767E+001	
5.587118091443173E+005	-3.498475353295110E+001	7.920836079814011E+001	
5.623726544063253E+005	-3.493471687188504E+001	7.891266630234303E+001	
5.660574866108197E+005	-3.488543058519517E+001	7.862612878315807E+001	
5.697664629273524E+005	-3.484427336089556E+001	7.828784701701899E+001	
5.734997415552969E+005	-3.480388127887436E+001	7.796879953153083E+001	
5.772574817305958E+005	-3.475714658418523E+001	7.766003455607866E+001	
5.810398437325528E+005	-3.472176589537854E+001	7.732858605321164E+001	
5.848469888906692E+005	-3.468799938927650E+001	7.703026969499490E+001	
5.886790795915247E+005	-3.465390084543486E+001	7.668673229003136E+001	
5.925362792857041E+005	-3.461515935415313E+001	7.637277155315363E+001	
5.964187524947689E+005	-3.458446840814872E+001	7.608290370708315E+001	
6.003266648182746E+005	-3.454626557282090E+001	7.579390516697461E+001	
6.042601829408339E+005	-3.451992633585519E+001	7.546575363615634E+001	
6.082194746392266E+005	-3.448795519960710E+001	7.513264256726581E+001	
6.122047087895556E+005	-3.445743326482383E+001	7.481721949336539E+001	
6.162160553744501E+005	-3.443691292118236E+001	7.455286123406997E+001	
6.202536854903157E+005	-3.441222262558129E+001	7.425784816144144E+001	
6.243177713546323E+005	-3.439717724884287E+001	7.397614900902380E+001	
6.284084863133002E+005	-3.437547565841710E+001	7.366242625180455E+001	
6.325260048480327E+005	-3.433343556269969E+001	7.356140153361936E+001	
6.366705025837995E+005	-3.432739416609487E+001	7.309691071693665E+001	
6.408421562963169E+005	-3.431162726606797E+001	7.285950144132166E+001	
6.450411439195880E+005	-3.429674225504103E+001	7.259590301634668E+001	
6.492676445534922E+005	-3.427796207868592E+001	7.231632010301823E+001	
6.535218384714247E+005	-3.426088510002688E+001	7.205529080298940E+001	
6.578039071279848E+005	-3.425775007898875E+001	7.184810906732618E+001	
6.621140331667166E+005	-3.423896901813735E+001	7.157879390303566E+001	
6.664524004278985E+005	-3.422222823967673E+001	7.141542627642596E+001	
6.708191939563849E+005	-3.420953574475219E+001	7.116959629226867E+001	
6.752146000094990E+005	-3.419369587230407E+001	7.093336380288639E+001	
6.796388060649771E+005	-3.418518637485762E+001	7.073636299608157E+001	
6.840920008289651E+005	-3.415156061727329E+001	7.040031359446491E+001	
6.885743742440676E+005	-3.414845157781133E+001	7.027018144574518E+001	
6.930861174974493E+005	-3.413922220842140E+001	7.002718590074574E+001	
6.976274230289898E+005	-3.412877347642188E+001	6.992475600201676E+001	
7.021984845394918E+005	-3.410541894608121E+001	6.963691440612324E+001	
7.067994969989432E+005	-3.409257507916814E+001	6.943596486534180E+001	
7.114306566548328E+005	-3.408456042647232E+001	6.921630952223900E+001	
7.160921610405211E+005	-3.407228527781596E+001	6.900262380301156E+001	
7.207842089836659E+005	-3.405996776952733E+001	6.869667846837493E+001	
7.255070006147025E+005	-3.406311772919099E+001	6.846999602650647E+001	
7.302607373753800E+005	-3.404749873648949E+001	6.838386102911123E+001	
7.350456220273539E+005	-3.404580791758139E+001	6.809151744609322E+001	
7.398618586608336E+005	-3.403749729180335E+001	6.777642874685783E+001	
7.447096527032884E+005	-3.402722382744378E+001	6.762920513201139E+001	
7.495892109282091E+005	-3.403269151986548E+001	6.737575543018350E+001	
7.545007414639277E+005	-3.403229835335886E+001	6.720868823759105E+001	
7.594444538024946E+005	-3.402241769583559E+001	6.697748575288165E+001	
7.644205588086142E+005	-3.400529439660879E+001	6.681140903600797E+001	
7.694292687286388E+005	-3.400588099779006E+001	6.653925013450552E+001	
7.744707971996219E+005	-3.401014073981898E+001	6.622233696432956E+001	
7.795453592584301E+005	-3.400971071626721E+001	6.607047904589237E+001	
7.846531713509152E+005	-3.402941402268250E+001	6.568685354312041E+001	
7.897944513411465E+005	-3.403382552185511E+001	6.563604725743156E+001	
7.949694185207030E+005	-3.403308963149135E+001	6.528501736431967E+001	
8.001782936180272E+005	-3.404570859316617E+001	6.502514567799689E+001	
8.054212988078399E+005	-3.404698129196370E+001	6.462944737026338E+001	
8.106986577206160E+005	-3.408312756172543E+001	6.437216492201320E+001	
8.160105954521240E+005	-3.410620418404425E+001	6.411972696530800E+001	
8.213573385730264E+005	-3.416505416022996E+001	6.385809028360677E+001	
8.267391151385435E+005	-3.418176666395522E+001	6.366981954428314E+001	
8.321561546981814E+005	-3.420643731500307E+001	6.327100823359917E+001	
8.376086883055224E+005	-3.423526734161187E+001	6.321329187526848E+001	
8.430969485280803E+005	-3.424748733313378E+001	6.280930991809413E+001	
8.486211694572198E+005	-3.432607789203332E+001	6.251028357340301E+001	
8.541815867181420E+005	-3.439667257733126E+001	6.225281605225408E+001	
8.597784374799342E+005	-3.438836171979701E+001	6.222098712513910E+001	
8.654119604656852E+005	-3.449769504962556E+001	6.185021722636768E+001	
8.710823959626689E+005	-3.455376471439890E+001	6.148828493643293E+001	
8.767899858325921E+005	-3.463222231066081E+001	6.139334649699440E+001	
8.825349735219113E+005	-3.473105927886596E+001	6.132652801511394E+001	
8.883176040722162E+005	-3.480901215373235E+001	6.098775936425836E+001	
8.941381241306819E+005	-3.490027347360127E+001	6.128504810791285E+001	
8.999967819605883E+005	-3.496424443613353E+001	6.061300270584809E+001	
9.058938274519104E+005	-3.508646775539421E+001	6.085331534232945E+001	
9.118295121319760E+005	-3.522061718693139E+001	6.058071015686949E+001	
9.178040891761945E+005	-3.537489578600530E+001	6.077777732397703E+001	
9.238178134188557E+005	-3.549639995013222E+001	6.086223924333216E+001	
9.298709413639989E+005	-3.564027066057093E+001	6.099307934089767E+001	
9.359637311963543E+005	-3.577743484535357E+001	6.119884919558868E+001	
9.420964427923544E+005	-3.591599967479620E+001	6.145629027302026E+001	
9.482693377312193E+005	-3.612640588112498E+001	6.169787516604558E+001	
9.544826793061136E+005	-3.631468968032181E+001	6.195387493142856E+001	
9.607367325353769E+005	-3.650615725916561E+001	6.249675697491426E+001	
9.670317641738271E+005	-3.666293917031659E+001	6.360568693306090E+001	
9.733680427241389E+005	-3.693856809521699E+001	6.367281067499150E+001	
9.797458384482961E+005	-3.713551047454011E+001	6.509534537680989E+001	
9.861654233791188E+005	-3.733149280911729E+001	6.566680898803574E+001	
9.926270713318669E+005	-3.758440569145395E+001	6.703355119123422E+001	
9.991310579159191E+005	-3.784956360762073E+001	6.799030361244495E+001	
1.005677660546528E+006	-3.813117996267713E+001	6.918670747822586E+001	
1.012267158456654E+006	-3.842568909165067E+001	7.129635030282952E+001	
1.018899832708873E+006	-3.860692921691040E+001	7.455923387401897E+001	
1.025575966207368E+006	-3.889821486455481E+001	7.611140592730546E+001	
1.032295843709993E+006	-3.910626907960453E+001	8.244370583228528E+001	
1.039059751840419E+006	-3.921512988711339E+001	8.258074424219672E+001	
1.045867979100362E+006	-3.974219801631741E+001	8.890382093034950E+001	
1.052720815881885E+006	-3.954128477569520E+001	8.908668820326621E+001	
1.059618554479787E+006	-3.949777041644850E+001	9.371048845740408E+001	
1.066561489104068E+006	-3.980717758192724E+001	9.940951680369513E+001	
1.073549915892481E+006	-3.965145784510079E+001	1.033834438588557E+002	
1.080584132923160E+006	-3.954263535557922E+001	1.088409758803021E+002	
1.087664440227334E+006	-3.933693843409375E+001	1.137783435855176E+002	
1.094791139802127E+006	-3.907050606161078E+001	1.209303528394647E+002	
1.101964535623438E+006	-3.852297397354096E+001	1.264333960835594E+002	
1.109184933658906E+006	-3.754689125849083E+001	1.302759429191516E+002	
1.116452641880958E+006	-3.692022644045779E+001	1.338693411973779E+002	
1.123767970279951E+006	-3.585311754895206E+001	1.365891547242834E+002	
1.131131230877389E+006	-3.468828027833408E+001	1.380049699256383E+002	
1.138542737739234E+006	-3.431307630374882E+001	1.361412847767506E+002	
1.146002806989300E+006	-3.359984374752970E+001	1.376921246320613E+002	
1.153511756822739E+006	-3.302666742833593E+001	1.399909208173836E+002	
1.161069907519612E+006	-3.205443065803527E+001	1.388450100934216E+002	
1.168677581458549E+006	-3.179364850121364E+001	1.377895191536498E+002	
1.176335103130500E+006	-3.098826356878103E+001	1.384375745356662E+002	
1.184042799152576E+006	-3.063035578060756E+001	1.381692288558567E+002	
1.191800998281983E+006	-3.003085281472178E+001	1.374675269442367E+002	
1.199610031430037E+006	-2.937233489632462E+001	1.385851047195579E+002	
1.207470231676285E+006	-2.877190345027486E+001	1.355652707245637E+002	
1.215381934282710E+006	-2.802798213072368E+001	1.356533296393724E+002	
1.223345476708032E+006	-2.751717841177961E+001	1.331335364726580E+002	
1.231361198622098E+006	-2.710233877734430E+001	1.315013324878585E+002	
1.239429441920374E+006	-2.674622761298235E+001	1.286367156744590E+002	
1.247550550738526E+006	-2.635782776270723E+001	1.272397525249886E+002	
1.255724871467098E+006	-2.595065054345808E+001	1.241328062666986E+002	
1.263952752766290E+006	-2.570616236415039E+001	1.240998926381583E+002	
1.272234545580823E+006	-2.527634418564221E+001	1.223104719504646E+002	
1.280570603154916E+006	-2.491886979371484E+001	1.201623150923140E+002	
1.288961281047345E+006	-2.459997537993687E+001	1.177322151401871E+002	
1.297406937146615E+006	-2.442484631190942E+001	1.158035330165226E+002	
1.305907931686222E+006	-2.413249844592723E+001	1.137915951169566E+002	
1.314464627260017E+006	-2.395471998380067E+001	1.117486637378043E+002	
1.323077388837675E+006	-2.377362088149051E+001	1.094838155592594E+002	
1.331746583780260E+006	-2.361195112703351E+001	1.075272298177413E+002	
1.340472581855894E+006	-2.347303678521697E+001	1.058201189279131E+002	
1.349255755255530E+006	-2.333114959195352E+001	1.039541742626462E+002	
1.358096478608826E+006	-2.322936172002624E+001	1.020884404262555E+002	
1.366995129000124E+006	-2.311199646899102E+001	1.002795598098086E+002	
1.375952085984535E+006	-2.302979911451060E+001	9.866878463071457E+001	
1.384967731604127E+006	-2.295007837491935E+001	9.692236683814440E+001	
1.394042450404222E+006	-2.291780548532259E+001	9.553499524157843E+001	
1.403176629449796E+006	-2.287005673731288E+001	9.402759098998942E+001	
1.412370658341988E+006	-2.281402891995175E+001	9.280480230268442E+001	
1.421624929234721E+006	-2.275349900352104E+001	9.173974942413861E+001	
1.430939836851426E+006	-2.269136401769944E+001	9.042191628611533E+001	
1.440315778501879E+006	-2.263395313867819E+001	8.921025667667901E+001	
1.449753154099146E+006	-2.260748059908519E+001	8.800749832694110E+001	
1.459252366176646E+006	-2.256094213810462E+001	8.698144847115252E+001	
1.468813819905310E+006	-2.253247527738186E+001	8.583028138481804E+001	
1.478437923110874E+006	-2.250174448246963E+001	8.481848973767423E+001	
1.488125086291267E+006	-2.247601088303644E+001	8.380797643756276E+001	
1.497875722634121E+006	-2.243483193407696E+001	8.289508752740385E+001	
1.507690248034399E+006	-2.241244475991813E+001	8.195621125782863E+001	
1.517569081112128E+006	-2.238562022147200E+001	8.108552199873185E+001	
1.527512643230257E+006	-2.236895169569561E+001	8.022023736495551E+001	
1.537521358512634E+006	-2.234114403261607E+001	7.946977682358788E+001	
1.547595653862087E+006	-2.231991950693935E+001	7.866980391397239E+001	
1.557735958978641E+006	-2.229519465351586E+001	7.795064782593767E+001	
1.567942706377842E+006	-2.226516013888958E+001	7.721579162963465E+001	
1.578216331409205E+006	-2.225065709166715E+001	7.653378449296382E+001	
1.588557272274786E+006	-2.221754568659976E+001	7.585385425882998E+001	
1.598965970047869E+006	-2.218970637499037E+001	7.514976740805419E+001	
1.609442868691781E+006	-2.216000960260075E+001	7.450658952630822E+001	
1.619988415078829E+006	-2.212317733260019E+001	7.381160531922782E+001	
1.630603059009359E+006	-2.210276109993296E+001	7.315279959322390E+001	
1.641287253230943E+006	-2.207817398238160E+001	7.247774466736648E+001	
1.652041453457688E+006	-2.205350250987333E+001	7.185329634972936E+001	
1.662866118389675E+006	-2.203304587199435E+001	7.125902474788207E+001	
1.673761709732524E+006	-2.200537845454569E+001	7.069455307634344E+001	
1.684728692217088E+006	-2.198073402727632E+001	7.012480145827483E+001	
1.695767533619273E+006	-2.195735902410004E+001	6.950941733643683E+001	
1.706878704779991E+006	-2.193669398331517E+001	6.895587792833042E+001	
1.718062679625245E+006	-2.191471198514296E+001	6.845906974157516E+001	
1.729319935186339E+006	-2.189042625766012E+001	6.786056977131084E+001	
1.740650951620230E+006	-2.186899272728807E+001	6.736437510383588E+001	
1.752056212230003E+006	-2.185428763057253E+001	6.686645692338884E+001	
1.763536203485489E+006	-2.182716459810492E+001	6.641708485655560E+001	
1.775091415044016E+006	-2.180775266862058E+001	6.595031597371381E+001	
1.786722339771287E+006	-2.177338715396634E+001	6.551636300601197E+001	
1.798429473762410E+006	-2.174654632161906E+001	6.507140047630109E+001	
1.810213316363056E+006	-2.172082235575889E+001	6.458596273763362E+001	
1.822074370190755E+006	-2.169313517733306E+001	6.421809029101119E+001	
1.834013141156335E+006	-2.164418317431280E+001	6.379127768546380E+001	
1.846030138485505E+006	-2.161074411583391E+001	6.330877820511599E+001	
1.858125874740568E+006	-2.157067642585339E+001	6.284150192062561E+001	
1.870300865842289E+006	-2.153736738680428E+001	6.236154875906103E+001	
1.882555631091898E+006	-2.150085849564670E+001	6.179524950893594E+001	
1.894890693193242E+006	-2.146825944504610E+001	6.135638338196058E+001	
1.907306578275076E+006	-2.144358513513728E+001	6.077918363557256E+001	
1.919803815913509E+006	-2.142181657168035E+001	6.032478330068199E+001	
1.932382939154587E+006	-2.139822999386224E+001	5.982830279504110E+001	
1.945044484537033E+006	-2.138332259481274E+001	5.939415229584455E+001	
1.957788992115130E+006	-2.135788241132909E+001	5.906182334448211E+001	
1.970617005481758E+006	-2.133519408278877E+001	5.851697935829264E+001	
1.983529071791577E+006	-2.131631305009720E+001	5.814005376794661E+001	
1.996525741784367E+006	-2.130074710999608E+001	5.767666899632386E+001	
2.009607569808519E+006	-2.127457136727190E+001	5.732869664359399E+001	
2.022775113844676E+006	-2.124755248001065E+001	5.690936024431855E+001	
2.036028935529539E+006	-2.122351395522682E+001	5.652452425545879E+001	
2.049369600179817E+006	-2.120443490722327E+001	5.604340058724437E+001	
2.062797676816343E+006	-2.119318676492588E+001	5.564993741908376E+001	
2.076313738188340E+006	-2.117528864884429E+001	5.534940810784393E+001	
2.089918360797857E+006	-2.115056629917344E+001	5.502037238518988E+001	
2.103612124924354E+006	-2.113125777029408E+001	5.465214174832543E+001	
2.117395614649452E+006	-2.108279822801809E+001	5.440125767128414E+001	
2.131269417881852E+006	-2.106957313985141E+001	5.390272068946728E+001	
2.145234126382402E+006	-2.106290312274229E+001	5.353555170847419E+001	
2.159290335789346E+006	-2.104314510064063E+001	5.331502715969481E+001	
2.173438645643724E+006	-2.103458311945391E+001	5.299575673962146E+001	
2.187679659414948E+006	-2.099186100631719E+001	5.276830709327007E+001	
2.202013984526541E+006	-2.096265714712481E+001	5.269407035059500E+001	
2.216442232382041E+006	-2.092813630679036E+001	5.233116604369742E+001	
2.230965018391088E+006	-2.086554392596082E+001	5.196718463144899E+001	
2.245582961995665E+006	-2.083450732146842E+001	5.156619235227065E+001	
2.260296686696523E+006	-2.080411597895331E+001	5.117031812636214E+001	
2.275106820079775E+006	-2.078244954930774E+001	5.077653202767851E+001	
2.290013993843664E+006	-2.077624913016152E+001	5.049081467713779E+001	
2.305018843825507E+006	-2.074673492500644E+001	5.019190737606996E+001	
2.320122010028816E+006	-2.076808355317285E+001	5.016229087161210E+001	
2.335324136650594E+006	-2.073116526898595E+001	4.989067560331021E+001	
2.350625872108815E+006	-2.068071667719034E+001	5.017244911388978E+001	
2.366027869070079E+006	-2.060224383538893E+001	4.965233540982293E+001	
2.381530784477451E+006	-2.054512158330230E+001	4.928564870126643E+001	
2.397135279578482E+006	-2.057243553657469E+001	4.935241289150299E+001	
2.412842019953412E+006	-2.047886488523297E+001	4.917387141296687E+001	
2.428651675543560E+006	-2.040941008261260E+001	4.952655249366352E+001	
2.444564920679900E+006	-2.031250870821135E+001	4.896778599669558E+001	
2.460582434111821E+006	-2.024074114195015E+001	4.843470178241415E+001	
2.476704899036080E+006	-2.017404182074242E+001	4.790255468774000E+001	
2.492933003125940E+006	-2.011785134948967E+001	4.751425880084086E+001	
2.509267438560506E+006	-2.006948292041781E+001	4.706262445261332E+001	
2.525708902054241E+006	-2.000280819324925E+001	4.682825069461465E+001	
2.542258094886692E+006	-1.994020514845319E+001	4.620040066207672E+001	
2.558915722932395E+006	-1.989147667497926E+001	4.580054180689906E+001	
2.575682496690984E+006	-1.982536498939889E+001	4.544164946598227E+001	
2.592559131317500E+006	-1.978429121326006E+001	4.490609630970628E+001	
2.609546346652889E+006	-1.972696285488586E+001	4.463336572844354E+001	
2.626644867254709E+006	-1.964954147998297E+001	4.412609052508351E+001	
2.643855422428036E+006	-1.960172445859326E+001	4.352107375362613E+001	
2.661178746256564E+006	-1.956810956004700E+001	4.299409257073226E+001	
2.678615577633925E+006	-1.951703446105099E+001	4.244019835430798E+001	
2.696166660295199E+006	-1.949088478396545E+001	4.189193162799710E+001	
2.713832742848640E+006	-1.945871265214842E+001	4.141992903356928E+001	
2.731614578807603E+006	-1.943305554801381E+001	4.098867329536505E+001	
2.749512926622687E+006	-1.939757665659394E+001	4.059486029577867E+001	
2.767528549714084E+006	-1.936604980699394E+001	4.014528165616654E+001	
2.785662216504141E+006	-1.931535951013624E+001	3.978460421252608E+001	
2.803914700450135E+006	-1.928000048659013E+001	3.928721823356592E+001	
2.822286780077266E+006	-1.924080834376388E+001	3.878558879792703E+001	
2.840779239011859E+006	-1.920467546763407E+001	3.834755572996487E+001	
2.859392866014794E+006	-1.917581095056952E+001	3.783456811007049E+001	
2.878128455015144E+006	-1.914900231030931E+001	3.734842374281299E+001	
2.896986805144040E+006	-1.911124219424268E+001	3.697260756104412E+001	
2.915968720768759E+006	-1.907762081969720E+001	3.647793116612039E+001	
2.935075011527028E+006	-1.904987562186168E+001	3.611258337490293E+001	
2.954306492361563E+006	-1.901383113944967E+001	3.565405025723730E+001	
2.973663983554823E+006	-1.898228956068089E+001	3.518307651720069E+001	
2.993148310764003E+006	-1.894500751698067E+001	3.475938484484660E+001	
3.012760305056247E+006	-1.891857768917264E+001	3.425088757735424E+001	
3.032500802944099E+006	-1.888530488185635E+001	3.382889357027054E+001	
3.052370646421178E+006	-1.885464238190710E+001	3.338252166799050E+001	
3.072370682998098E+006	-1.883089850087184E+001	3.294147705681900E+001	
3.092501765738611E+006	-1.879904802644098E+001	3.252431852271060E+001	
