# Version 1.00
#
# Ref Impedances: Z01: 50, Z02: 50
# 
freq[Hz]	db:Trc9_S21	ang:Trc9_S21	
5.000000000000000E+005	-3.587487813746589E+001	8.348603149257548E+001	
5.032761480982608E+005	-3.582845738714085E+001	8.328799866270207E+001	
5.065737624892451E+005	-3.575833865291147E+001	8.307285686502490E+001	
5.098929838264610E+005	-3.569463121378995E+001	8.282578440175891E+001	
5.132339536850202E+005	-3.563948393245326E+001	8.258912814560088E+001	
5.165968145676763E+005	-3.558694741430736E+001	8.231047803771521E+001	
5.199817099109033E+005	-3.552844927552545E+001	8.210822616225434E+001	
5.233887840910133E+005	-3.547832043863318E+001	8.182539317931443E+001	
5.268181824303150E+005	-3.542318302954875E+001	8.158179893481427E+001	
5.302700512033115E+005	-3.536721578633537E+001	8.132515276035373E+001	
5.337445376429403E+005	-3.531081035947278E+001	8.108885315920337E+001	
5.372417899468524E+005	-3.525936980636129E+001	8.084375118060613E+001	
5.407619572837337E+005	-3.520385340015947E+001	8.054052821200293E+001	
5.443051897996675E+005	-3.515298326168298E+001	8.028971757871383E+001	
5.478716386245388E+005	-3.510144379978075E+001	8.002030829341132E+001	
5.514614558784805E+005	-3.505407100313032E+001	7.975636782460434E+001	
5.550747946783613E+005	-3.500680985565091E+001	7.946925620030356E+001	
5.587118091443173E+005	-3.495700644204861E+001	7.917314803029360E+001	
5.623726544063253E+005	-3.490367329452606E+001	7.885651829871372E+001	
5.660574866108197E+005	-3.485943503055245E+001	7.853636713703769E+001	
5.697664629273524E+005	-3.481418290552220E+001	7.821072499705592E+001	
5.734997415552969E+005	-3.476536550441776E+001	7.786440099824355E+001	
5.772574817305958E+005	-3.472352214587357E+001	7.756134514863888E+001	
5.810398437325528E+005	-3.468330087060318E+001	7.723779439875948E+001	
5.848469888906692E+005	-3.464432704294816E+001	7.690564776631565E+001	
5.886790795915247E+005	-3.461176231766216E+001	7.654627690942577E+001	
5.925362792857041E+005	-3.457342621698182E+001	7.624501957332303E+001	
5.964187524947689E+005	-3.454307505666105E+001	7.594657355399879E+001	
6.003266648182746E+005	-3.451457353742909E+001	7.566379730527116E+001	
6.042601829408339E+005	-3.447720301377984E+001	7.529998482614677E+001	
6.082194746392266E+005	-3.445088595005129E+001	7.497955948687141E+001	
6.122047087895556E+005	-3.443004939132511E+001	7.467389118260057E+001	
6.162160553744501E+005	-3.439553301198734E+001	7.438644799568971E+001	
6.202536854903157E+005	-3.437119932154911E+001	7.412264909363346E+001	
6.243177713546323E+005	-3.435312149754960E+001	7.379194025072624E+001	
6.284084863133002E+005	-3.433634645183997E+001	7.350880907411928E+001	
6.325260048480327E+005	-3.429005635188686E+001	7.339471317594355E+001	
6.366705025837995E+005	-3.428727506188479E+001	7.292233503925874E+001	
6.408421562963169E+005	-3.426532304540851E+001	7.262882126194204E+001	
6.450411439195880E+005	-3.424885044943317E+001	7.234408690427554E+001	
6.492676445534922E+005	-3.422934166307942E+001	7.206773447816075E+001	
6.535218384714247E+005	-3.421406185364568E+001	7.182165609323333E+001	
6.578039071279848E+005	-3.419892955763004E+001	7.151444290331305E+001	
6.621140331667166E+005	-3.418884599683206E+001	7.128814249186790E+001	
6.664524004278985E+005	-3.417285997572725E+001	7.112643539662632E+001	
6.708191939563849E+005	-3.416088857605946E+001	7.087321672365445E+001	
6.752146000094990E+005	-3.414861508163791E+001	7.064529012791017E+001	
6.796388060649771E+005	-3.414416186469126E+001	7.044944667603896E+001	
6.840920008289651E+005	-3.411634229197969E+001	7.012277026579849E+001	
6.885743742440676E+005	-3.411295646074726E+001	6.996886949733515E+001	
6.930861174974493E+005	-3.410494130170650E+001	6.970999381026242E+001	
6.976274230289898E+005	-3.408717125576206E+001	6.956908979439612E+001	
7.021984845394918E+005	-3.407151152932167E+001	6.930472764650376E+001	
7.067994969989432E+005	-3.405998708852568E+001	6.906701795794139E+001	
7.114306566548328E+005	-3.405128919460411E+001	6.880458631787370E+001	
7.160921610405211E+005	-3.403986081699480E+001	6.851088744213858E+001	
7.207842089836659E+005	-3.403135594794615E+001	6.825565924548212E+001	
7.255070006147025E+005	-3.403465458971788E+001	6.800966578732543E+001	
7.302607373753800E+005	-3.402358398457184E+001	6.785825574780823E+001	
7.350456220273539E+005	-3.401693185088961E+001	6.752427998791725E+001	
7.398618586608336E+005	-3.401549083231744E+001	6.725217394492573E+001	
7.447096527032884E+005	-3.400903827852844E+001	6.707102069958677E+001	
7.495892109282091E+005	-3.402747245420435E+001	6.680249434869414E+001	
7.545007414639277E+005	-3.402562192073215E+001	6.664147336334422E+001	
7.594444538024946E+005	-3.401936497258305E+001	6.638107984145243E+001	
7.644205588086142E+005	-3.400297638205287E+001	6.622434402745154E+001	
7.694292687286388E+005	-3.401553698889486E+001	6.593201575608264E+001	
7.744707971996219E+005	-3.401575190012459E+001	6.563429038863515E+001	
7.795453592584301E+005	-3.402716993595898E+001	6.544584303461289E+001	
7.846531713509152E+005	-3.404756301080451E+001	6.507186540728532E+001	
7.897944513411465E+005	-3.405957013362470E+001	6.501925286813231E+001	
7.949694185207030E+005	-3.406462995955839E+001	6.470299464898019E+001	
8.001782936180272E+005	-3.408751875932055E+001	6.444135683190858E+001	
8.054212988078399E+005	-3.409599766609855E+001	6.405407214793814E+001	
8.106986577206160E+005	-3.413704471032099E+001	6.379029018459558E+001	
8.160105954521240E+005	-3.416680387716298E+001	6.353095958101613E+001	
8.213573385730264E+005	-3.422436204049713E+001	6.330316874893588E+001	
8.267391151385435E+005	-3.424822721420583E+001	6.316708086592450E+001	
8.321561546981814E+005	-3.427433442500274E+001	6.278324627083350E+001	
8.376086883055224E+005	-3.431002367702313E+001	6.277353426394503E+001	
8.430969485280803E+005	-3.432775042196918E+001	6.242922768439350E+001	
8.486211694572198E+005	-3.440673383826312E+001	6.211785415140631E+001	
8.541815867181420E+005	-3.448099144405482E+001	6.189184098850011E+001	
8.597784374799342E+005	-3.447731959034149E+001	6.190869827554057E+001	
8.654119604656852E+005	-3.458772120726685E+001	6.156788790307841E+001	
8.710823959626689E+005	-3.464485444810028E+001	6.125726098103753E+001	
8.767899858325921E+005	-3.472167753899717E+001	6.120233947846374E+001	
8.825349735219113E+005	-3.482243086366142E+001	6.115845919830228E+001	
8.883176040722162E+005	-3.489517854897639E+001	6.088641855428008E+001	
8.941381241306819E+005	-3.498954572158442E+001	6.120958157064091E+001	
8.999967819605883E+005	-3.505611932368033E+001	6.056156298623774E+001	
9.058938274519104E+005	-3.517296164650532E+001	6.086299219657915E+001	
9.118295121319760E+005	-3.530552876004665E+001	6.060912263939529E+001	
9.178040891761945E+005	-3.546036598231775E+001	6.083995461943268E+001	
9.238178134188557E+005	-3.558367084285533E+001	6.093758160552125E+001	
9.298709413639989E+005	-3.572387646920149E+001	6.109888660255115E+001	
9.359637311963543E+005	-3.585827487713095E+001	6.131950069031045E+001	
9.420964427923544E+005	-3.600028060249453E+001	6.160250065823776E+001	
9.482693377312193E+005	-3.620317689161067E+001	6.190992429313232E+001	
9.544826793061136E+005	-3.638474433814223E+001	6.218212009386906E+001	
9.607367325353769E+005	-3.657229447499374E+001	6.269452971763410E+001	
9.670317641738271E+005	-3.672165260880585E+001	6.392646836313391E+001	
9.733680427241389E+005	-3.698868969199830E+001	6.398651743790099E+001	
9.797458384482961E+005	-3.718940388746881E+001	6.542273024563541E+001	
9.861654233791188E+005	-3.737856620975323E+001	6.594021345940416E+001	
9.926270713318669E+005	-3.762780165400611E+001	6.737158987076106E+001	
9.991310579159191E+005	-3.788773600532765E+001	6.831408121306444E+001	
1.005677660546528E+006	-3.815277362555978E+001	6.953445122615955E+001	
1.012267158456654E+006	-3.845121687350370E+001	7.164842699108154E+001	
1.018899832708873E+006	-3.861018937711597E+001	7.493300967373715E+001	
1.025575966207368E+006	-3.891136611287659E+001	7.643501449081494E+001	
1.032295843709993E+006	-3.908817935655760E+001	8.274028778939172E+001	
1.039059751840419E+006	-3.920860515043310E+001	8.276926131587919E+001	
1.045867979100362E+006	-3.972110466466787E+001	8.914996052670153E+001	
1.052720815881885E+006	-3.953146783326841E+001	8.930685005900513E+001	
1.059618554479787E+006	-3.946228002282923E+001	9.382877061420817E+001	
1.066561489104068E+006	-3.981829805172674E+001	9.948886633034852E+001	
1.073549915892481E+006	-3.965756841619372E+001	1.034435785725901E+002	
1.080584132923160E+006	-3.953957963268563E+001	1.090205487885981E+002	
1.087664440227334E+006	-3.933818265851031E+001	1.138995573822846E+002	
1.094791139802127E+006	-3.907610623250812E+001	1.210612985143685E+002	
1.101964535623438E+006	-3.851646474347518E+001	1.265883291400129E+002	
1.109184933658906E+006	-3.754606625954606E+001	1.303825898355490E+002	
1.116452641880958E+006	-3.692192528999859E+001	1.340237894072334E+002	
1.123767970279951E+006	-3.584868408771526E+001	1.366918984692377E+002	
1.131131230877389E+006	-3.468351782583296E+001	1.380621081206471E+002	
1.138542737739234E+006	-3.431953557440927E+001	1.362804278629580E+002	
1.146002806989300E+006	-3.362338214625848E+001	1.377168952004747E+002	
1.153511756822739E+006	-3.303289358714854E+001	1.400574274261556E+002	
1.161069907519612E+006	-3.204700937417883E+001	1.389822790193253E+002	
1.168677581458549E+006	-3.178033463056900E+001	1.377419244832125E+002	
1.176335103130500E+006	-3.098476945755248E+001	1.384051096221909E+002	
1.184042799152576E+006	-3.063065457001702E+001	1.381804012341434E+002	
1.191800998281983E+006	-3.003336089144900E+001	1.375127037398353E+002	
1.199610031430037E+006	-2.937222955923477E+001	1.386104729482875E+002	
1.207470231676285E+006	-2.876858054906244E+001	1.356235089181406E+002	
1.215381934282710E+006	-2.802964787587550E+001	1.356852295770059E+002	
1.223345476708032E+006	-2.751790232458367E+001	1.331747793574737E+002	
1.231361198622098E+006	-2.710650932217557E+001	1.315262149398508E+002	
1.239429441920374E+006	-2.674581724584282E+001	1.286773362844727E+002	
1.247550550738526E+006	-2.636158234091236E+001	1.272514211112965E+002	
1.255724871467098E+006	-2.595478310813196E+001	1.241688576493132E+002	
1.263952752766290E+006	-2.571018017236776E+001	1.241423150445145E+002	
1.272234545580823E+006	-2.527626322819767E+001	1.223426670498651E+002	
1.280570603154916E+006	-2.492175784293841E+001	1.202075535537839E+002	
1.288961281047345E+006	-2.460394526647016E+001	1.177661088389268E+002	
1.297406937146615E+006	-2.442646568898936E+001	1.158421715322636E+002	
1.305907931686222E+006	-2.413301186653255E+001	1.138223205724946E+002	
1.314464627260017E+006	-2.395626105389811E+001	1.117819865071442E+002	
1.323077388837675E+006	-2.377330318458482E+001	1.095134907772528E+002	
1.331746583780260E+006	-2.361205853192504E+001	1.075557712345442E+002	
1.340472581855894E+006	-2.347162880800104E+001	1.058410277359637E+002	
1.349255755255530E+006	-2.333125689423523E+001	1.039831597220967E+002	
1.358096478608826E+006	-2.322906535009110E+001	1.021103774558973E+002	
1.366995129000124E+006	-2.311219263189575E+001	1.002952706280875E+002	
1.375952085984535E+006	-2.302862091554129E+001	9.869359394818930E+001	
1.384967731604127E+006	-2.294788754167851E+001	9.694937296271381E+001	
1.394042450404222E+006	-2.291570404812283E+001	9.555431799719095E+001	
1.403176629449796E+006	-2.286861178440345E+001	9.404025219623996E+001	
1.412370658341988E+006	-2.281308526035558E+001	9.282863692444158E+001	
1.421624929234721E+006	-2.275282171040240E+001	9.175038651074416E+001	
1.430939836851426E+006	-2.268945323763713E+001	9.042927050909749E+001	
1.440315778501879E+006	-2.263236719946471E+001	8.921799510665686E+001	
1.449753154099146E+006	-2.260634965343967E+001	8.801781917790092E+001	
1.459252366176646E+006	-2.255850582302298E+001	8.699532439761917E+001	
1.468813819905310E+006	-2.252909138669440E+001	8.583579576944577E+001	
1.478437923110874E+006	-2.249965745668927E+001	8.482611264014673E+001	
1.488125086291267E+006	-2.247418992708249E+001	8.380488372265643E+001	
1.497875722634121E+006	-2.243337882643164E+001	8.289596743342025E+001	
1.507690248034399E+006	-2.241024947704285E+001	8.195585974160180E+001	
1.517569081112128E+006	-2.238347742121459E+001	8.107654828466026E+001	
1.527512643230257E+006	-2.236627003708879E+001	8.022285233813788E+001	
1.537521358512634E+006	-2.233833756200767E+001	7.946264835950177E+001	
1.547595653862087E+006	-2.231680674400727E+001	7.866087419966048E+001	
1.557735958978641E+006	-2.229417639527907E+001	7.794213773680266E+001	
1.567942706377842E+006	-2.226349369352947E+001	7.719820182428468E+001	
1.578216331409205E+006	-2.224867294485111E+001	7.650872093180341E+001	
1.588557272274786E+006	-2.221517350055594E+001	7.583606437314757E+001	
1.598965970047869E+006	-2.218712023423623E+001	7.512598456819720E+001	
1.609442868691781E+006	-2.215854543257276E+001	7.447097037034166E+001	
1.619988415078829E+006	-2.212359437658688E+001	7.377649922189806E+001	
1.630603059009359E+006	-2.210226781832166E+001	7.311301657502821E+001	
1.641287253230943E+006	-2.207918685060061E+001	7.244177422548978E+001	
1.652041453457688E+006	-2.205426545459314E+001	7.181480095014241E+001	
1.662866118389675E+006	-2.203426971909908E+001	7.122404284654341E+001	
1.673761709732524E+006	-2.200823034150728E+001	7.066287443362920E+001	
1.684728692217088E+006	-2.198271167463503E+001	7.009030154209009E+001	
1.695767533619273E+006	-2.196018743625851E+001	6.947083111131023E+001	
1.706878704779991E+006	-2.194168033208227E+001	6.892037300511299E+001	
1.718062679625245E+006	-2.191929493659053E+001	6.843049698719443E+001	
1.729319935186339E+006	-2.189591269764297E+001	6.782762486865423E+001	
1.740650951620230E+006	-2.187521953218614E+001	6.733451145903383E+001	
1.752056212230003E+006	-2.186176549251366E+001	6.684336083051002E+001	
1.763536203485489E+006	-2.183448186743821E+001	6.639471557588435E+001	
1.775091415044016E+006	-2.181594296174218E+001	6.593534935076274E+001	
1.786722339771287E+006	-2.178179276422567E+001	6.550787580351968E+001	
1.798429473762410E+006	-2.175499367411518E+001	6.505519231594131E+001	
1.810213316363056E+006	-2.172939361984693E+001	6.458467220774091E+001	
1.822074370190755E+006	-2.170129080122377E+001	6.422253452214761E+001	
1.834013141156335E+006	-2.165154286662069E+001	6.380774932115491E+001	
1.846030138485505E+006	-2.161724727590051E+001	6.332258188654081E+001	
1.858125874740568E+006	-2.157761460503881E+001	6.285892833482178E+001	
1.870300865842289E+006	-2.154339781353076E+001	6.238259391516639E+001	
1.882555631091898E+006	-2.150646297656967E+001	6.181660037368046E+001	
1.894890693193242E+006	-2.147389948860722E+001	6.137689709810726E+001	
1.907306578275076E+006	-2.144719064310929E+001	6.079938685549581E+001	
1.919803815913509E+006	-2.142507367998977E+001	6.034893503459829E+001	
1.932382939154587E+006	-2.140339833401182E+001	5.984982856072789E+001	
1.945044484537033E+006	-2.138718452293560E+001	5.940201122645183E+001	
1.957788992115130E+006	-2.136154149422302E+001	5.908713093076229E+001	
1.970617005481758E+006	-2.133861168831426E+001	5.853481126526768E+001	
1.983529071791577E+006	-2.132015565614486E+001	5.816437947949290E+001	
1.996525741784367E+006	-2.130483836613174E+001	5.769981699395336E+001	
2.009607569808519E+006	-2.127876700421112E+001	5.734998336177775E+001	
2.022775113844676E+006	-2.125095640030573E+001	5.693830349243093E+001	
2.036028935529539E+006	-2.122798955735740E+001	5.654800607732160E+001	
2.049369600179817E+006	-2.120740419681255E+001	5.608475642547329E+001	
2.062797676816343E+006	-2.119512129954456E+001	5.569393142741129E+001	
2.076313738188340E+006	-2.117595167025841E+001	5.541020410384310E+001	
2.089918360797857E+006	-2.115008285123970E+001	5.505472047272723E+001	
2.103612124924354E+006	-2.112924774832946E+001	5.469399022171268E+001	
2.117395614649452E+006	-2.107974158500076E+001	5.443242881583790E+001	
2.131269417881852E+006	-2.106615289932941E+001	5.392509102547924E+001	
2.145234126382402E+006	-2.105925429335938E+001	5.355377233186495E+001	
2.159290335789346E+006	-2.103820713408258E+001	5.332451292670252E+001	
2.173438645643724E+006	-2.103036369905664E+001	5.300109670649245E+001	
2.187679659414948E+006	-2.098593317288246E+001	5.276476073283044E+001	
2.202013984526541E+006	-2.095766652714684E+001	5.269196667781984E+001	
2.216442232382041E+006	-2.092473345552857E+001	5.231733579331563E+001	
2.230965018391088E+006	-2.086290909244991E+001	5.195116780830667E+001	
2.245582961995665E+006	-2.083080174326451E+001	5.155672770004026E+001	
2.260296686696523E+006	-2.079825164976565E+001	5.114599188512923E+001	
2.275106820079775E+006	-2.077898843146551E+001	5.075559159678380E+001	
2.290013993843664E+006	-2.077445299262802E+001	5.047428418501998E+001	
2.305018843825507E+006	-2.074562180731380E+001	5.017327354245231E+001	
2.320122010028816E+006	-2.076510437785668E+001	5.011462505892298E+001	
2.335324136650594E+006	-2.072868188064552E+001	4.987166567660593E+001	
2.350625872108815E+006	-2.068010086583476E+001	5.014526973249129E+001	
2.366027869070079E+006	-2.060343024502938E+001	4.965458117045711E+001	
2.381530784477451E+006	-2.054553412428815E+001	4.926333120101191E+001	
2.397135279578482E+006	-2.057528087949514E+001	4.935165753550719E+001	
2.412842019953412E+006	-2.048175855267080E+001	4.916480949651579E+001	
2.428651675543560E+006	-2.041086482943789E+001	4.950815242022537E+001	
2.444564920679900E+006	-2.032182681304242E+001	4.891340168585133E+001	
2.460582434111821E+006	-2.024913696032098E+001	4.840492694275937E+001	
2.476704899036080E+006	-2.018446273709835E+001	4.786225549142237E+001	
2.492933003125940E+006	-2.012715594722241E+001	4.749463253635179E+001	
2.509267438560506E+006	-2.007605150987305E+001	4.706606882591043E+001	
2.525708902054241E+006	-2.000880509918426E+001	4.684383669433804E+001	
2.542258094886692E+006	-1.994615926779813E+001	4.622018532286482E+001	
2.558915722932395E+006	-1.989592388210073E+001	4.581973265774877E+001	
2.575682496690984E+006	-1.983380430367631E+001	4.547092441365395E+001	
2.592559131317500E+006	-1.978786614238763E+001	4.494972781609616E+001	
2.609546346652889E+006	-1.973183145611132E+001	4.467228284979900E+001	
2.626644867254709E+006	-1.965312243333248E+001	4.415937798290032E+001	
2.643855422428036E+006	-1.960385987670840E+001	4.355236258318016E+001	
2.661178746256564E+006	-1.956966606728526E+001	4.302455068030699E+001	
2.678615577633925E+006	-1.951869114132366E+001	4.246324028243630E+001	
2.696166660295199E+006	-1.949183241644846E+001	4.191711572926202E+001	
2.713832742848640E+006	-1.945951425422539E+001	4.144296366233829E+001	
2.731614578807603E+006	-1.943331846599405E+001	4.101209644756062E+001	
2.749512926622687E+006	-1.939735536277638E+001	4.061552765133973E+001	
2.767528549714084E+006	-1.936592321363818E+001	4.016530126426984E+001	
2.785662216504141E+006	-1.931531801164668E+001	3.979867748740887E+001	
2.803914700450135E+006	-1.927884000136887E+001	3.929512145060647E+001	
2.822286780077266E+006	-1.923930999319822E+001	3.879025529198644E+001	
2.840779239011859E+006	-1.920370159509225E+001	3.835687067884899E+001	
2.859392866014794E+006	-1.917489083382198E+001	3.784215386677006E+001	
2.878128455015144E+006	-1.914876379478723E+001	3.736442523348763E+001	
2.896986805144040E+006	-1.911070981736800E+001	3.698572660419105E+001	
2.915968720768759E+006	-1.907754488137828E+001	3.648349212236692E+001	
2.935075011527028E+006	-1.904942228396337E+001	3.611585957274813E+001	
2.954306492361563E+006	-1.901384993768705E+001	3.565834779982005E+001	
2.973663983554823E+006	-1.898353967088964E+001	3.518477684057138E+001	
2.993148310764003E+006	-1.894573722306807E+001	3.476133174364520E+001	
3.012760305056247E+006	-1.891876550951267E+001	3.425518719202803E+001	
3.032500802944099E+006	-1.888742452357180E+001	3.383610794006275E+001	
3.052370646421178E+006	-1.885554777512915E+001	3.338676622685644E+001	
3.072370682998098E+006	-1.883170397205747E+001	3.294697743280998E+001	
3.092501765738611E+006	-1.880002626295558E+001	3.252056312732646E+001	
