# Version 1.00
#
# Ref Impedances: Z01: 50, Z02: 50
# 
freq[Hz]	db:Trc9_S21	ang:Trc9_S21	
5.000000000000000E+005	-3.584843905043676E+001	8.342614283644983E+001	
5.032761480982608E+005	-3.579679975740188E+001	8.323846255402194E+001	
5.065737624892451E+005	-3.573408890717590E+001	8.303476614487974E+001	
5.098929838264610E+005	-3.567731493231177E+001	8.279086012114021E+001	
5.132339536850202E+005	-3.561877282576464E+001	8.253757982853067E+001	
5.165968145676763E+005	-3.555629024500950E+001	8.226844175647041E+001	
5.199817099109033E+005	-3.550778792316217E+001	8.203299426423861E+001	
5.233887840910133E+005	-3.545606475036746E+001	8.177867440237957E+001	
5.268181824303150E+005	-3.539968284225024E+001	8.153807460318254E+001	
5.302700512033115E+005	-3.534904879703019E+001	8.127582193931266E+001	
5.337445376429403E+005	-3.526996524677542E+001	8.100517660419850E+001	
5.372417899468524E+005	-3.522730051762289E+001	8.067574663832959E+001	
5.407619572837337E+005	-3.519148304916929E+001	8.044021610223211E+001	
5.443051897996675E+005	-3.513226774318844E+001	8.020085151930653E+001	
5.478716386245388E+005	-3.507973413130875E+001	7.991952517631670E+001	
5.514614558784805E+005	-3.503688696937709E+001	7.965674601964523E+001	
5.550747946783613E+005	-3.498437267130527E+001	7.935405398926859E+001	
5.587118091443173E+005	-3.493815354441230E+001	7.904875222249981E+001	
5.623726544063253E+005	-3.489388768908334E+001	7.878882332605419E+001	
5.660574866108197E+005	-3.485421851152562E+001	7.848072538487115E+001	
5.697664629273524E+005	-3.481540330339659E+001	7.816007403050556E+001	
5.734997415552969E+005	-3.476731407497685E+001	7.782690600622682E+001	
5.772574817305958E+005	-3.471420162910943E+001	7.750487067815662E+001	
5.810398437325528E+005	-3.469047557791478E+001	7.718971556275739E+001	
5.848469888906692E+005	-3.465096337471932E+001	7.688303808858039E+001	
5.886790795915247E+005	-3.461717744290439E+001	7.652281607856274E+001	
5.925362792857041E+005	-3.458396581952187E+001	7.620095378115245E+001	
5.964187524947689E+005	-3.452307140872104E+001	7.579522648612357E+001	
6.003266648182746E+005	-3.451208433436279E+001	7.558158332368801E+001	
6.042601829408339E+005	-3.448643423176500E+001	7.531056859269370E+001	
6.082194746392266E+005	-3.445642641790222E+001	7.499371084032759E+001	
6.122047087895556E+005	-3.443480007380199E+001	7.469000353608034E+001	
6.162160553744501E+005	-3.441007278105665E+001	7.439929894822990E+001	
6.202536854903157E+005	-3.438246830538584E+001	7.411568769993930E+001	
6.243177713546323E+005	-3.436563313226385E+001	7.385409663757439E+001	
6.284084863133002E+005	-3.432905298572322E+001	7.347822960263798E+001	
6.325260048480327E+005	-3.427564764672351E+001	7.325973686125785E+001	
6.366705025837995E+005	-3.427668861460028E+001	7.286782959907674E+001	
6.408421562963169E+005	-3.425692987666721E+001	7.260136633016036E+001	
6.450411439195880E+005	-3.424494237207932E+001	7.232526248921275E+001	
6.492676445534922E+005	-3.423209138762937E+001	7.208439371836045E+001	
6.535218384714247E+005	-3.421363315243919E+001	7.185819360327800E+001	
6.578039071279848E+005	-3.420696681797713E+001	7.157781710221688E+001	
6.621140331667166E+005	-3.419347783164852E+001	7.130356162907215E+001	
6.664524004278985E+005	-3.415252799910961E+001	7.096870992758424E+001	
6.708191939563849E+005	-3.413557889573116E+001	7.062195572485364E+001	
6.752146000094990E+005	-3.412356284862377E+001	7.038801113951433E+001	
6.796388060649771E+005	-3.414196227887504E+001	7.041918162674944E+001	
6.840920008289651E+005	-3.411468280123093E+001	7.017285252043897E+001	
6.885743742440676E+005	-3.411383226269023E+001	7.001307607051778E+001	
6.930861174974493E+005	-3.409744536566959E+001	6.975215684606862E+001	
6.976274230289898E+005	-3.408697802098083E+001	6.958751849460165E+001	
7.021984845394918E+005	-3.405476037820120E+001	6.916320700581773E+001	
7.067994969989432E+005	-3.403871845052029E+001	6.885318477354159E+001	
7.114306566548328E+005	-3.403988523401091E+001	6.870293351020808E+001	
7.160921610405211E+005	-3.402747009850889E+001	6.845867417832366E+001	
7.207842089836659E+005	-3.402192481410219E+001	6.824133475484227E+001	
7.255070006147025E+005	-3.402457614475028E+001	6.801417998666189E+001	
7.302607373753800E+005	-3.401260081124670E+001	6.789078001411073E+001	
7.350456220273539E+005	-3.401219873202470E+001	6.762655097120452E+001	
7.398618586608336E+005	-3.400257019277849E+001	6.726749860332986E+001	
7.447096527032884E+005	-3.399833926846871E+001	6.694104916912761E+001	
7.495892109282091E+005	-3.400828903255645E+001	6.674965875118960E+001	
7.545007414639277E+005	-3.401293304115334E+001	6.659385881553185E+001	
7.594444538024946E+005	-3.400450171096833E+001	6.648846211586630E+001	
7.644205588086142E+005	-3.398717222576060E+001	6.635616165805810E+001	
7.694292687286388E+005	-3.399429954360480E+001	6.605028390386359E+001	
7.744707971996219E+005	-3.399746898346963E+001	6.572756037044155E+001	
7.795453592584301E+005	-3.400322235605196E+001	6.558134185106627E+001	
7.846531713509152E+005	-3.402958793097494E+001	6.510138003773179E+001	
7.897944513411465E+005	-3.402915263850605E+001	6.503092785980066E+001	
7.949694185207030E+005	-3.404258822314053E+001	6.474518082086711E+001	
8.001782936180272E+005	-3.405118658705479E+001	6.447061163833389E+001	
8.054212988078399E+005	-3.406218123536781E+001	6.414757490804210E+001	
8.106986577206160E+005	-3.409596330954295E+001	6.389525578469434E+001	
8.160105954521240E+005	-3.412240775390429E+001	6.363964857109681E+001	
8.213573385730264E+005	-3.418084212376388E+001	6.339099314207204E+001	
8.267391151385435E+005	-3.420783803107740E+001	6.320122557205325E+001	
8.321561546981814E+005	-3.424875513579357E+001	6.260635321285041E+001	
8.376086883055224E+005	-3.428055709543078E+001	6.263010538996687E+001	
8.430969485280803E+005	-3.429392792098591E+001	6.226166321107229E+001	
8.486211694572198E+005	-3.435715987478863E+001	6.203663979852195E+001	
8.541815867181420E+005	-3.442702663416763E+001	6.182979303709740E+001	
8.597784374799342E+005	-3.442428654491530E+001	6.180296704290577E+001	
8.654119604656852E+005	-3.453325649389194E+001	6.140964669869361E+001	
8.710823959626689E+005	-3.459600229821107E+001	6.109133354875591E+001	
8.767899858325921E+005	-3.467927261614723E+001	6.092076369261288E+001	
8.825349735219113E+005	-3.478162563216991E+001	6.085030536542318E+001	
8.883176040722162E+005	-3.485517710689998E+001	6.051236408846522E+001	
8.941381241306819E+005	-3.493864047703573E+001	6.089864543504662E+001	
8.999967819605883E+005	-3.499117074821054E+001	6.023867575307683E+001	
9.058938274519104E+005	-3.511201699440531E+001	6.050539401109271E+001	
9.118295121319760E+005	-3.524605872344412E+001	6.018497913421058E+001	
9.178040891761945E+005	-3.539941798596966E+001	6.035314253237325E+001	
9.238178134188557E+005	-3.553007120153509E+001	6.040409101623244E+001	
9.298709413639989E+005	-3.568668055853427E+001	6.045419767364605E+001	
9.359637311963543E+005	-3.581978454976544E+001	6.067093739030076E+001	
9.420964427923544E+005	-3.596416036124695E+001	6.091408745729233E+001	
9.482693377312193E+005	-3.616405218956983E+001	6.111035724644454E+001	
9.544826793061136E+005	-3.635540894867789E+001	6.134731108540142E+001	
9.607367325353769E+005	-3.655027760438880E+001	6.183963058975175E+001	
9.670317641738271E+005	-3.671867517155987E+001	6.299099826366222E+001	
9.733680427241389E+005	-3.699520433157676E+001	6.295266494692587E+001	
9.797458384482961E+005	-3.722297323604194E+001	6.439606094758342E+001	
9.861654233791188E+005	-3.742472894812108E+001	6.491837006483029E+001	
9.926270713318669E+005	-3.769321345281115E+001	6.637823798722418E+001	
9.991310579159191E+005	-3.796769670104911E+001	6.726535935597356E+001	
1.005677660546528E+006	-3.825033042793901E+001	6.850436997242687E+001	
1.012267158456654E+006	-3.856515966659043E+001	7.069699069397424E+001	
1.018899832708873E+006	-3.874928385748987E+001	7.412487621911672E+001	
1.025575966207368E+006	-3.905897170280730E+001	7.573003286598889E+001	
1.032295843709993E+006	-3.925241204033774E+001	8.224485472562982E+001	
1.039059751840419E+006	-3.938571007637057E+001	8.234605505340090E+001	
1.045867979100362E+006	-3.991651403853483E+001	8.893647973474079E+001	
1.052720815881885E+006	-3.971233961902146E+001	8.916669590911849E+001	
1.059618554479787E+006	-3.963521038764102E+001	9.384410592455224E+001	
1.066561489104068E+006	-3.999137365349620E+001	9.964329518734834E+001	
1.073549915892481E+006	-3.980023138163345E+001	1.037413024523505E+002	
1.080584132923160E+006	-3.967214047553420E+001	1.094072173447397E+002	
1.087664440227334E+006	-3.945328065626401E+001	1.143690940945353E+002	
1.094791139802127E+006	-3.917151510120537E+001	1.215569791196869E+002	
1.101964535623438E+006	-3.859852275803292E+001	1.270999725521200E+002	
1.109184933658906E+006	-3.761137998633744E+001	1.308777687365115E+002	
1.116452641880958E+006	-3.697491667594920E+001	1.345011098621530E+002	
1.123767970279951E+006	-3.588862048064605E+001	1.370986802308596E+002	
1.131131230877389E+006	-3.471385516170986E+001	1.383906519798081E+002	
1.138542737739234E+006	-3.435202822658194E+001	1.366421543574286E+002	
1.146002806989300E+006	-3.363838309231439E+001	1.381567657453568E+002	
1.153511756822739E+006	-3.305994285727419E+001	1.404150369408998E+002	
1.161069907519612E+006	-3.205868833588036E+001	1.391836766254870E+002	
1.168677581458549E+006	-3.179787520603813E+001	1.379506566241625E+002	
1.176335103130500E+006	-3.100389343298790E+001	1.387101869612381E+002	
1.184042799152576E+006	-3.064620728623254E+001	1.384282199414377E+002	
1.191800998281983E+006	-3.004579517318944E+001	1.377580838434580E+002	
1.199610031430037E+006	-2.938128383501315E+001	1.388239511497882E+002	
1.207470231676285E+006	-2.877664995898068E+001	1.358029143531805E+002	
1.215381934282710E+006	-2.803506254696217E+001	1.358612964939248E+002	
1.223345476708032E+006	-2.752491926462371E+001	1.333447979922782E+002	
1.231361198622098E+006	-2.710922435013719E+001	1.316659750468590E+002	
1.239429441920374E+006	-2.675134765336365E+001	1.288148461798653E+002	
1.247550550738526E+006	-2.636471721052073E+001	1.273754760151138E+002	
1.255724871467098E+006	-2.595833129553636E+001	1.242741622522494E+002	
1.263952752766290E+006	-2.571077417702675E+001	1.242293241235559E+002	
1.272234545580823E+006	-2.527994704871465E+001	1.224281619057824E+002	
1.280570603154916E+006	-2.492364249693154E+001	1.202915964277058E+002	
1.288961281047345E+006	-2.460750207966714E+001	1.178453912107285E+002	
1.297406937146615E+006	-2.443100117368180E+001	1.159232285700339E+002	
1.305907931686222E+006	-2.413764526707581E+001	1.139031687482004E+002	
1.314464627260017E+006	-2.395949452134638E+001	1.118571944258019E+002	
1.323077388837675E+006	-2.377585161552526E+001	1.095860810484013E+002	
1.331746583780260E+006	-2.361401129905660E+001	1.076151241330379E+002	
1.340472581855894E+006	-2.347486553826130E+001	1.059030117579591E+002	
1.349255755255530E+006	-2.333179506356675E+001	1.040402927712362E+002	
1.358096478608826E+006	-2.323038182079230E+001	1.021720242949119E+002	
1.366995129000124E+006	-2.311321692454502E+001	1.003498657724707E+002	
1.375952085984535E+006	-2.302989525692335E+001	9.872976157298504E+001	
1.384967731604127E+006	-2.294830097995416E+001	9.699176571508671E+001	
1.394042450404222E+006	-2.291766509564802E+001	9.558924783544046E+001	
1.403176629449796E+006	-2.286792922446400E+001	9.407459570459754E+001	
1.412370658341988E+006	-2.281338718085949E+001	9.284785406215644E+001	
1.421624929234721E+006	-2.275347485790674E+001	9.178610624916441E+001	
1.430939836851426E+006	-2.269045676344703E+001	9.045641571248936E+001	
1.440315778501879E+006	-2.263401023547849E+001	8.924371127352218E+001	
1.449753154099146E+006	-2.260735626225037E+001	8.803968413311422E+001	
1.459252366176646E+006	-2.256006447286114E+001	8.701777771265299E+001	
1.468813819905310E+006	-2.253079451925956E+001	8.586142167103451E+001	
1.478437923110874E+006	-2.250076559319874E+001	8.484302979645497E+001	
1.488125086291267E+006	-2.247532697176368E+001	8.382530697728430E+001	
1.497875722634121E+006	-2.243468677006582E+001	8.291165230481830E+001	
1.507690248034399E+006	-2.241226906446542E+001	8.196762103989046E+001	
1.517569081112128E+006	-2.238609262903351E+001	8.108963248464232E+001	
1.527512643230257E+006	-2.236858600027892E+001	8.023376021900303E+001	
1.537521358512634E+006	-2.234097288645899E+001	7.947351513052062E+001	
1.547595653862087E+006	-2.232009267530088E+001	7.867314851419488E+001	
1.557735958978641E+006	-2.229709151994216E+001	7.794353009541365E+001	
1.567942706377842E+006	-2.226777616656719E+001	7.721764043613008E+001	
1.578216331409205E+006	-2.225240161266517E+001	7.652252381002627E+001	
1.588557272274786E+006	-2.221892218605563E+001	7.584769874796393E+001	
1.598965970047869E+006	-2.219148532755860E+001	7.513983382212267E+001	
1.609442868691781E+006	-2.216295354172421E+001	7.449208491546247E+001	
1.619988415078829E+006	-2.212758255773725E+001	7.379637456039325E+001	
1.630603059009359E+006	-2.210678412376734E+001	7.314007106088103E+001	
1.641287253230943E+006	-2.208288221457660E+001	7.246549535086130E+001	
1.652041453457688E+006	-2.205803826391930E+001	7.184080491841449E+001	
1.662866118389675E+006	-2.203824727239116E+001	7.124595333493048E+001	
1.673761709732524E+006	-2.201195106867658E+001	7.069079616546409E+001	
1.684728692217088E+006	-2.198638027794122E+001	7.012294776993880E+001	
1.695767533619273E+006	-2.196246482706002E+001	6.950580331789627E+001	
1.706878704779991E+006	-2.194268587111280E+001	6.895964430360857E+001	
1.718062679625245E+006	-2.192054478554690E+001	6.846661287237194E+001	
1.729319935186339E+006	-2.189618065685813E+001	6.786661479432782E+001	
1.740650951620230E+006	-2.187592418262961E+001	6.736840416677629E+001	
1.752056212230003E+006	-2.185915828146710E+001	6.687412401552469E+001	
1.763536203485489E+006	-2.183132030805386E+001	6.642195240586473E+001	
1.775091415044016E+006	-2.181206258191743E+001	6.596081093261789E+001	
1.786722339771287E+006	-2.177775223167294E+001	6.552852635457388E+001	
1.798429473762410E+006	-2.174990814995332E+001	6.508267486405308E+001	
1.810213316363056E+006	-2.172287553859637E+001	6.459554605835268E+001	
1.822074370190755E+006	-2.169691077971131E+001	6.422870424536897E+001	
1.834013141156335E+006	-2.164728223420765E+001	6.379896421613700E+001	
1.846030138485505E+006	-2.161256958783097E+001	6.331678171123622E+001	
1.858125874740568E+006	-2.157174839117598E+001	6.284588488864313E+001	
1.870300865842289E+006	-2.153964481194057E+001	6.236078649070097E+001	
1.882555631091898E+006	-2.150145654739506E+001	6.179752604412451E+001	
1.894890693193242E+006	-2.146874441356191E+001	6.135846941273733E+001	
1.907306578275076E+006	-2.144383850996553E+001	6.077496460965498E+001	
1.919803815913509E+006	-2.142178141511247E+001	6.032151261128965E+001	
1.932382939154587E+006	-2.139993174621250E+001	5.981587929665447E+001	
1.945044484537033E+006	-2.138478156171470E+001	5.939819930321282E+001	
1.957788992115130E+006	-2.135856671043630E+001	5.905307300266372E+001	
1.970617005481758E+006	-2.133473085088918E+001	5.851224312121099E+001	
1.983529071791577E+006	-2.131794329391979E+001	5.813578946559615E+001	
1.996525741784367E+006	-2.130209783638999E+001	5.767001727093194E+001	
2.009607569808519E+006	-2.127584768189088E+001	5.730085849391511E+001	
2.022775113844676E+006	-2.124805691561256E+001	5.691382804549080E+001	
2.036028935529539E+006	-2.122468634610492E+001	5.650714007667584E+001	
2.049369600179817E+006	-2.120467114909083E+001	5.603356299076295E+001	
2.062797676816343E+006	-2.119372513758681E+001	5.564322946599010E+001	
2.076313738188340E+006	-2.117497959523139E+001	5.534639989054288E+001	
2.089918360797857E+006	-2.115021843751494E+001	5.499494765485366E+001	
2.103612124924354E+006	-2.113101832026174E+001	5.462872281970707E+001	
2.117395614649452E+006	-2.108348838403381E+001	5.437392827926055E+001	
2.131269417881852E+006	-2.106828021301488E+001	5.386594776782398E+001	
2.145234126382402E+006	-2.106276841940330E+001	5.350753041280549E+001	
2.159290335789346E+006	-2.104346474829218E+001	5.328484168130789E+001	
2.173438645643724E+006	-2.103492747509740E+001	5.296900882645914E+001	
2.187679659414948E+006	-2.099094885732993E+001	5.273159663404834E+001	
2.202013984526541E+006	-2.096108206995286E+001	5.266641792281271E+001	
2.216442232382041E+006	-2.092865809847258E+001	5.229410166741191E+001	
2.230965018391088E+006	-2.086370473008749E+001	5.192534851836913E+001	
2.245582961995665E+006	-2.083256385916261E+001	5.151605188955877E+001	
2.260296686696523E+006	-2.079867733373594E+001	5.109689826625636E+001	
2.275106820079775E+006	-2.077864818494868E+001	5.070291996786172E+001	
2.290013993843664E+006	-2.077561748256285E+001	5.041765110542968E+001	
2.305018843825507E+006	-2.074767768486289E+001	5.010476850778318E+001	
2.320122010028816E+006	-2.076864861791053E+001	5.005126405633231E+001	
2.335324136650594E+006	-2.073280799989616E+001	4.979901336811810E+001	
2.350625872108815E+006	-2.068631874601713E+001	5.008230601389511E+001	
2.366027869070079E+006	-2.061068527877926E+001	4.955466576146544E+001	
2.381530784477451E+006	-2.055496323104023E+001	4.917929438389601E+001	
2.397135279578482E+006	-2.058054106219549E+001	4.925976909585668E+001	
2.412842019953412E+006	-2.048731167126215E+001	4.910459035280790E+001	
2.428651675543560E+006	-2.041703818637518E+001	4.940197737063164E+001	
2.444564920679900E+006	-2.033323182777767E+001	4.885300516112498E+001	
2.460582434111821E+006	-2.026185084926883E+001	4.834894555938323E+001	
2.476704899036080E+006	-2.019983911252063E+001	4.781654474505979E+001	
2.492933003125940E+006	-2.014322123788024E+001	4.745498585428763E+001	
2.509267438560506E+006	-2.009228080242807E+001	4.704285191714375E+001	
2.525708902054241E+006	-2.002615195936994E+001	4.682743961367059E+001	
2.542258094886692E+006	-1.996314016819912E+001	4.622250158982427E+001	
2.558915722932395E+006	-1.991019641325357E+001	4.583298179757826E+001	
2.575682496690984E+006	-1.984738005983537E+001	4.549652459607125E+001	
2.592559131317500E+006	-1.980211342446099E+001	4.497343151536175E+001	
2.609546346652889E+006	-1.974342912782993E+001	4.469641870815116E+001	
2.626644867254709E+006	-1.966268142618219E+001	4.418331477949131E+001	
2.643855422428036E+006	-1.961406446299288E+001	4.357450530282524E+001	
2.661178746256564E+006	-1.957902822152003E+001	4.304539117360036E+001	
2.678615577633925E+006	-1.952648245072647E+001	4.248213830551288E+001	
2.696166660295199E+006	-1.950075153397501E+001	4.193571632454791E+001	
2.713832742848640E+006	-1.946790981204548E+001	4.145692277294783E+001	
2.731614578807603E+006	-1.944154769684317E+001	4.102530564742599E+001	
2.749512926622687E+006	-1.940581817106861E+001	4.063126959957998E+001	
2.767528549714084E+006	-1.937375045134477E+001	4.018135286553618E+001	
2.785662216504141E+006	-1.932389645930875E+001	3.982663085859661E+001	
2.803914700450135E+006	-1.928693329830285E+001	3.932629274840492E+001	
2.822286780077266E+006	-1.924708428972720E+001	3.881810546187385E+001	
2.840779239011859E+006	-1.921073465332485E+001	3.838564419094708E+001	
2.859392866014794E+006	-1.918153924093738E+001	3.787830932725660E+001	
2.878128455015144E+006	-1.915458758108400E+001	3.740200062116243E+001	
2.896986805144040E+006	-1.911584063505915E+001	3.702862832817107E+001	
2.915968720768759E+006	-1.908147657750600E+001	3.652554225252941E+001	
2.935075011527028E+006	-1.905275555878274E+001	3.615717505114985E+001	
2.954306492361563E+006	-1.901590748369610E+001	3.569354584193753E+001	
2.973663983554823E+006	-1.898426263102325E+001	3.522104817852500E+001	
2.993148310764003E+006	-1.894671869581656E+001	3.479813090740447E+001	
3.012760305056247E+006	-1.892065121460025E+001	3.428367737248200E+001	
3.032500802944099E+006	-1.888771680709444E+001	3.387369780077238E+001	
3.052370646421178E+006	-1.885715229197574E+001	3.340591402189447E+001	
3.072370682998098E+006	-1.883246635007091E+001	3.296380925005173E+001	
3.092501765738611E+006	-1.880162632082374E+001	3.254021786477047E+001	
