# Version 1.00
#
# Ref Impedances: Z01: 50, Z02: 50
# 
freq[Hz]	db:Trc9_S21	ang:Trc9_S21	
5.000000000000000E+005	-3.582556370041468E+001	8.348826993306082E+001	
5.032761480982608E+005	-3.575897053567316E+001	8.329053465227084E+001	
5.065737624892451E+005	-3.570452630153095E+001	8.303909545748238E+001	
5.098929838264610E+005	-3.564093451537104E+001	8.281052686491009E+001	
5.132339536850202E+005	-3.556437265067657E+001	8.254789108205239E+001	
5.165968145676763E+005	-3.551482805225651E+001	8.231105727546914E+001	
5.199817099109033E+005	-3.546138143387756E+001	8.203200508185684E+001	
5.233887840910133E+005	-3.540432926858103E+001	8.178704460221090E+001	
5.268181824303150E+005	-3.534764520338033E+001	8.152602450553574E+001	
5.302700512033115E+005	-3.523570725692294E+001	8.118178265397096E+001	
5.337445376429403E+005	-3.520100421166364E+001	8.091340787865664E+001	
5.372417899468524E+005	-3.517608243521640E+001	8.072670060018484E+001	
5.407619572837337E+005	-3.512392665670866E+001	8.042083299288302E+001	
5.443051897996675E+005	-3.507606654282098E+001	8.015967496249040E+001	
5.478716386245388E+005	-3.502596111342933E+001	7.987615616314947E+001	
5.514614558784805E+005	-3.497948634715141E+001	7.958661836365310E+001	
5.550747946783613E+005	-3.492646265183752E+001	7.929187146951387E+001	
5.587118091443173E+005	-3.487471529469428E+001	7.902159632884521E+001	
5.623726544063253E+005	-3.482929320092043E+001	7.871465003515418E+001	
5.660574866108197E+005	-3.480012428214763E+001	7.842913138917683E+001	
5.697664629273524E+005	-3.474992724176920E+001	7.807011224737941E+001	
5.734997415552969E+005	-3.468439965355632E+001	7.767523279339683E+001	
5.772574817305958E+005	-3.464987117621905E+001	7.737366854872452E+001	
5.810398437325528E+005	-3.460874251122530E+001	7.702639964383182E+001	
5.848469888906692E+005	-3.457725162378550E+001	7.672253087283164E+001	
5.886790795915247E+005	-3.453968054508390E+001	7.632492688870939E+001	
5.925362792857041E+005	-3.442850591405253E+001	7.565829412763208E+001	
5.964187524947689E+005	-3.442179577727625E+001	7.549080246644617E+001	
6.003266648182746E+005	-3.440852404425695E+001	7.523165966822332E+001	
6.042601829408339E+005	-3.438719934198743E+001	7.491354169983704E+001	
6.082194746392266E+005	-3.436378125912131E+001	7.459930347260810E+001	
6.122047087895556E+005	-3.433815748106461E+001	7.434375247187262E+001	
6.162160553744501E+005	-3.431311666307607E+001	7.395409673360999E+001	
6.202536854903157E+005	-3.429096151571883E+001	7.369730606601394E+001	
6.243177713546323E+005	-3.428029095372109E+001	7.344151860383772E+001	
6.284084863133002E+005	-3.427712101261269E+001	7.322078969509697E+001	
6.325260048480327E+005	-3.423872325246709E+001	7.308269982426768E+001	
6.366705025837995E+005	-3.422640452358935E+001	7.253599014879158E+001	
6.408421562963169E+005	-3.418865837027889E+001	7.216468682586526E+001	
6.450411439195880E+005	-3.417968668170572E+001	7.187521971000658E+001	
6.492676445534922E+005	-3.416391305486972E+001	7.162286001910003E+001	
6.535218384714247E+005	-3.415307451347602E+001	7.135520421860552E+001	
6.578039071279848E+005	-3.413451902274262E+001	7.107239608641818E+001	
6.621140331667166E+005	-3.404656074768440E+001	6.995380956805285E+001	
6.664524004278985E+005	-3.408622460801396E+001	7.034553140228910E+001	
6.708191939563849E+005	-3.408408375556262E+001	7.013796569271483E+001	
6.752146000094990E+005	-3.407736378586963E+001	6.994197399359425E+001	
6.796388060649771E+005	-3.408217507158981E+001	6.981219893833772E+001	
6.840920008289651E+005	-3.405690084210521E+001	6.952619204579516E+001	
6.885743742440676E+005	-3.406119753398066E+001	6.935261011148025E+001	
6.930861174974493E+005	-3.404414981455467E+001	6.906852575675644E+001	
6.976274230289898E+005	-3.403694199092048E+001	6.892277162706144E+001	
7.021984845394918E+005	-3.402209134768172E+001	6.868956548681470E+001	
7.067994969989432E+005	-3.402648991044180E+001	6.858328730274178E+001	
7.114306566548328E+005	-3.401910826979355E+001	6.819950797660201E+001	
7.160921610405211E+005	-3.399652813179167E+001	6.780048156795753E+001	
7.207842089836659E+005	-3.399752939032079E+001	6.759278939353510E+001	
7.255070006147025E+005	-3.400477775272873E+001	6.732615407439783E+001	
7.302607373753800E+005	-3.399187196098738E+001	6.718528030376533E+001	
7.350456220273539E+005	-3.399713096207891E+001	6.691172959621443E+001	
7.398618586608336E+005	-3.398702593852701E+001	6.475896229762087E+001	
7.447096527032884E+005	-3.398776334782001E+001	6.614471169274491E+001	
7.495892109282091E+005	-3.400763288201533E+001	6.591779837613348E+001	
7.545007414639277E+005	-3.401050714403341E+001	6.595770677232670E+001	
7.594444538024946E+005	-3.400965950809692E+001	6.569002178174995E+001	
7.644205588086142E+005	-3.399703195837199E+001	6.556492046158209E+001	
7.694292687286388E+005	-3.400808385268992E+001	6.526886695134083E+001	
7.744707971996219E+005	-3.401789016434960E+001	6.496104206276111E+001	
7.795453592584301E+005	-3.403653312093321E+001	6.464762797083944E+001	
7.846531713509152E+005	-3.406286412356909E+001	6.433325450670517E+001	
7.897944513411465E+005	-3.406315388768909E+001	6.443993650949024E+001	
7.949694185207030E+005	-3.408106676981679E+001	6.401996876329574E+001	
8.001782936180272E+005	-3.410108159146389E+001	6.374835049753268E+001	
8.054212988078399E+005	-3.411234286386068E+001	6.346507702903512E+001	
8.106986577206160E+005	-3.415045771283693E+001	6.319787550794985E+001	
8.160105954521240E+005	-3.418187781506423E+001	6.297794785292744E+001	
8.213573385730264E+005	-3.425624102882136E+001	6.258397586838481E+001	
8.267391151385435E+005	-3.434682692684782E+001	6.177999446651737E+001	
8.321561546981814E+005	-3.432317404123865E+001	6.194284414468454E+001	
8.376086883055224E+005	-3.435237868325874E+001	6.201001372777238E+001	
8.430969485280803E+005	-3.436150151355907E+001	6.174533514851818E+001	
8.486211694572198E+005	-3.443364452297476E+001	6.146540473372932E+001	
8.541815867181420E+005	-3.450950194364302E+001	6.125681850531131E+001	
8.597784374799342E+005	-3.450001527878172E+001	6.126516918526274E+001	
8.654119604656852E+005	-3.460798997253014E+001	6.093273808357066E+001	
8.710823959626689E+005	-3.467488345422534E+001	6.054922777328392E+001	
8.767899858325921E+005	-3.474571245060732E+001	6.052883422743836E+001	
8.825349735219113E+005	-3.483514440663569E+001	6.049202429380127E+001	
8.883176040722162E+005	-3.491904765175805E+001	6.020875117150890E+001	
8.941381241306819E+005	-3.500591903280658E+001	6.053903100863896E+001	
8.999967819605883E+005	-3.506126257403820E+001	5.992875081111836E+001	
9.058938274519104E+005	-3.518611982544793E+001	6.016433784490653E+001	
9.118295121319760E+005	-3.532135599200952E+001	5.989872416884792E+001	
9.178040891761945E+005	-3.550725844841121E+001	5.990694511880920E+001	
9.238178134188557E+005	-3.568337517256270E+001	5.977360096548251E+001	
9.298709413639989E+005	-3.578294139023566E+001	6.011924887936092E+001	
9.359637311963543E+005	-3.590995947514426E+001	6.034763878220368E+001	
9.420964427923544E+005	-3.604328885385664E+001	6.068331302446208E+001	
9.482693377312193E+005	-3.624194626748490E+001	6.094243664148427E+001	
9.544826793061136E+005	-3.642840969016367E+001	6.119246986097188E+001	
9.607367325353769E+005	-3.663642270351551E+001	6.173530764155820E+001	
9.670317641738271E+005	-3.679982153867265E+001	6.291257126288580E+001	
9.733680427241389E+005	-3.706591709854001E+001	6.289348422343660E+001	
9.797458384482961E+005	-3.729222123490662E+001	6.437977265830787E+001	
9.861654233791188E+005	-3.749964606431216E+001	6.486824455102602E+001	
9.926270713318669E+005	-3.776195291507457E+001	6.636667118488819E+001	
9.991310579159191E+005	-3.803686385379570E+001	6.736037116529691E+001	
1.005677660546528E+006	-3.831933767305200E+001	6.867461872141701E+001	
1.012267158456654E+006	-3.862733088158927E+001	7.089033605793948E+001	
1.018899832708873E+006	-3.879951653102267E+001	7.436459422806922E+001	
1.025575966207368E+006	-3.914141668498085E+001	7.594005919675091E+001	
1.032295843709993E+006	-3.934662294451714E+001	8.244244313517098E+001	
1.039059751840419E+006	-3.944103296052059E+001	8.254605444907980E+001	
1.045867979100362E+006	-3.996000749712801E+001	8.912362269952195E+001	
1.052720815881885E+006	-3.973841688503770E+001	8.937007210471703E+001	
1.059618554479787E+006	-3.964921526828071E+001	9.402227469202261E+001	
1.066561489104068E+006	-4.002210259363260E+001	9.977361651871782E+001	
1.073549915892481E+006	-3.982488099098001E+001	1.038815648755178E+002	
1.080584132923160E+006	-3.969246044966327E+001	1.095622307816248E+002	
1.087664440227334E+006	-3.948248504602235E+001	1.146356662118718E+002	
1.094791139802127E+006	-3.918914765953543E+001	1.216852015832077E+002	
1.101964535623438E+006	-3.861327970393761E+001	1.272206518386007E+002	
1.109184933658906E+006	-3.763403551678135E+001	1.310230534969138E+002	
1.116452641880958E+006	-3.698422611492897E+001	1.346110506590141E+002	
1.123767970279951E+006	-3.590114767462019E+001	1.371963201162418E+002	
1.131131230877389E+006	-3.472437698814717E+001	1.384684297596393E+002	
1.138542737739234E+006	-3.437367340024419E+001	1.367244116164124E+002	
1.146002806989300E+006	-3.366637871243096E+001	1.383454627963177E+002	
1.153511756822739E+006	-3.308808773370200E+001	1.405817019890116E+002	
1.161069907519612E+006	-3.206535124895633E+001	1.392149530781619E+002	
1.168677581458549E+006	-3.181082658022148E+001	1.380012378790762E+002	
1.176335103130500E+006	-3.101650376700594E+001	1.387868715810041E+002	
1.184042799152576E+006	-3.065788609982647E+001	1.385055695515781E+002	
1.191800998281983E+006	-3.005764772410365E+001	1.378361187130292E+002	
1.199610031430037E+006	-2.939310298414727E+001	1.389104609921380E+002	
1.207470231676285E+006	-2.879030825693406E+001	1.358688943287732E+002	
1.215381934282710E+006	-2.805440386832188E+001	1.359657771832796E+002	
1.223345476708032E+006	-2.753763726656205E+001	1.334151256260521E+002	
1.231361198622098E+006	-2.712094260872532E+001	1.317443250470477E+002	
1.239429441920374E+006	-2.676372640462762E+001	1.288810299331022E+002	
1.247550550738526E+006	-2.637732892648917E+001	1.274575025181407E+002	
1.255724871467098E+006	-2.596941776929180E+001	1.243312220153166E+002	
1.263952752766290E+006	-2.572220568228292E+001	1.243022880055178E+002	
1.272234545580823E+006	-2.528837913993120E+001	1.225022370008374E+002	
1.280570603154916E+006	-2.494721049990567E+001	1.204517173272857E+002	
1.288961281047345E+006	-2.462702999063983E+001	1.179992934044801E+002	
1.297406937146615E+006	-2.444182036715461E+001	1.160350927583173E+002	
1.305907931686222E+006	-2.414357071046513E+001	1.139915570380972E+002	
1.314464627260017E+006	-2.396340084560745E+001	1.119293011131612E+002	
1.323077388837675E+006	-2.377879911232443E+001	1.096523510392568E+002	
1.331746583780260E+006	-2.361076832921656E+001	1.076412355744254E+002	
1.340472581855894E+006	-2.347117630260863E+001	1.059294246275104E+002	
1.349255755255530E+006	-2.332880192193156E+001	1.040563762435642E+002	
1.358096478608826E+006	-2.322828255279024E+001	1.021939002713933E+002	
1.366995129000124E+006	-2.310878508902206E+001	1.003709703231798E+002	
1.375952085984535E+006	-2.302754780556015E+001	9.876169026120425E+001	
1.384967731604127E+006	-2.294470123989663E+001	9.700993771397124E+001	
1.394042450404222E+006	-2.291259958522196E+001	9.560626573765080E+001	
1.403176629449796E+006	-2.286660917242141E+001	9.408701310646555E+001	
1.412370658341988E+006	-2.281105787538477E+001	9.286517637554503E+001	
1.421624929234721E+006	-2.275031040732664E+001	9.179966817787077E+001	
1.430939836851426E+006	-2.268840003557284E+001	9.046508777084631E+001	
1.440315778501879E+006	-2.263165605461072E+001	8.924414254021666E+001	
1.449753154099146E+006	-2.260384313381928E+001	8.804220379962912E+001	
1.459252366176646E+006	-2.255861034494535E+001	8.701780932233983E+001	
1.468813819905310E+006	-2.252965213935209E+001	8.585715534390694E+001	
1.478437923110874E+006	-2.249967361716702E+001	8.484566441395560E+001	
1.488125086291267E+006	-2.247375473207797E+001	8.382550558127674E+001	
1.497875722634121E+006	-2.243342977222760E+001	8.291099436784545E+001	
1.507690248034399E+006	-2.241093536165169E+001	8.196952067517660E+001	
1.517569081112128E+006	-2.238400428371080E+001	8.109300258217890E+001	
1.527512643230257E+006	-2.236788625502658E+001	8.023340898029980E+001	
1.537521358512634E+006	-2.233984903065461E+001	7.947212932200954E+001	
1.547595653862087E+006	-2.231925601199730E+001	7.867020222633892E+001	
1.557735958978641E+006	-2.229498930082802E+001	7.794569849065272E+001	
1.567942706377842E+006	-2.226529731716951E+001	7.721772104432267E+001	
1.578216331409205E+006	-2.225036243607969E+001	7.652380389014004E+001	
1.588557272274786E+006	-2.221730222033434E+001	7.584348184045729E+001	
1.598965970047869E+006	-2.218981532669050E+001	7.513885341669050E+001	
1.609442868691781E+006	-2.216173046248045E+001	7.449449817305566E+001	
1.619988415078829E+006	-2.212573936680011E+001	7.380271822078149E+001	
1.630603059009359E+006	-2.210527404554130E+001	7.313818723775810E+001	
1.641287253230943E+006	-2.208077301195777E+001	7.247127431296572E+001	
1.652041453457688E+006	-2.205692756108921E+001	7.184902234033928E+001	
1.662866118389675E+006	-2.203720641499015E+001	7.125462069528979E+001	
1.673761709732524E+006	-2.200901284985100E+001	7.069698398780979E+001	
1.684728692217088E+006	-2.198444241527825E+001	7.012949254173762E+001	
1.695767533619273E+006	-2.196127086965453E+001	6.950502258847683E+001	
1.706878704779991E+006	-2.194088740259972E+001	6.896258689607333E+001	
1.718062679625245E+006	-2.191887972527130E+001	6.846456620190074E+001	
1.729319935186339E+006	-2.189542667707406E+001	6.786571084443771E+001	
1.740650951620230E+006	-2.187338457429954E+001	6.737626878272683E+001	
1.752056212230003E+006	-2.185706155751341E+001	6.687855187704720E+001	
1.763536203485489E+006	-2.182989292615761E+001	6.642597345568605E+001	
1.775091415044016E+006	-2.180927377360460E+001	6.596500639990279E+001	
1.786722339771287E+006	-2.177441526663821E+001	6.552897006586656E+001	
1.798429473762410E+006	-2.174674426017701E+001	6.508624208893608E+001	
1.810213316363056E+006	-2.172091280502997E+001	6.460176582099348E+001	
1.822074370190755E+006	-2.169347391889265E+001	6.423098028148418E+001	
1.834013141156335E+006	-2.164593726071729E+001	6.380127647421719E+001	
1.846030138485505E+006	-2.161067985307742E+001	6.332058462207524E+001	
1.858125874740568E+006	-2.157110530529191E+001	6.285183787026234E+001	
1.870300865842289E+006	-2.153822666311026E+001	6.237492754594881E+001	
1.882555631091898E+006	-2.150141810505815E+001	6.180608905527632E+001	
1.894890693193242E+006	-2.146831543708260E+001	6.135912263786255E+001	
1.907306578275076E+006	-2.144301058645127E+001	6.078530626153923E+001	
1.919803815913509E+006	-2.142196775575253E+001	6.033004324262946E+001	
1.932382939154587E+006	-2.139796552760543E+001	5.982382661436161E+001	
1.945044484537033E+006	-2.138213493243802E+001	5.939414422708644E+001	
1.957788992115130E+006	-2.135693604644148E+001	5.906215996355267E+001	
1.970617005481758E+006	-2.133294029202021E+001	5.851586890574211E+001	
1.983529071791577E+006	-2.131449995248499E+001	5.813950134778537E+001	
1.996525741784367E+006	-2.129870137055235E+001	5.767799246270032E+001	
2.009607569808519E+006	-2.127266907095704E+001	5.730669893198179E+001	
2.022775113844676E+006	-2.124588540473770E+001	5.691560789790319E+001	
2.036028935529539E+006	-2.122262182895467E+001	5.651047465528425E+001	
2.049369600179817E+006	-2.120229214499853E+001	5.603486807158971E+001	
2.062797676816343E+006	-2.119179378215610E+001	5.563864062827616E+001	
2.076313738188340E+006	-2.117337091258911E+001	5.535415566236881E+001	
2.089918360797857E+006	-2.114759605290137E+001	5.500067417234117E+001	
2.103612124924354E+006	-2.112902891234808E+001	5.463522915040365E+001	
2.117395614649452E+006	-2.108217469943713E+001	5.437323359049760E+001	
2.131269417881852E+006	-2.106755243212435E+001	5.387488819688120E+001	
2.145234126382402E+006	-2.106097111064575E+001	5.350920401232575E+001	
2.159290335789346E+006	-2.104102590583503E+001	5.328671471582881E+001	
2.173438645643724E+006	-2.103233256334813E+001	5.297091931993947E+001	
2.187679659414948E+006	-2.098879969185607E+001	5.273285756727238E+001	
2.202013984526541E+006	-2.095869093984463E+001	5.265835933889214E+001	
2.216442232382041E+006	-2.092652416777239E+001	5.228783373435795E+001	
2.230965018391088E+006	-2.086233462463675E+001	5.191565827721988E+001	
2.245582961995665E+006	-2.083066070895141E+001	5.150932580870624E+001	
2.260296686696523E+006	-2.079786339432623E+001	5.109780822769771E+001	
2.275106820079775E+006	-2.077718834158010E+001	5.069524466896326E+001	
2.290013993843664E+006	-2.077389053847110E+001	5.040556738131912E+001	
2.305018843825507E+006	-2.074609304715251E+001	5.009292665367738E+001	
2.320122010028816E+006	-2.076775003958154E+001	5.004225301629442E+001	
2.335324136650594E+006	-2.073372031413627E+001	4.977652695256182E+001	
2.350625872108815E+006	-2.068472609495539E+001	5.007780930056678E+001	
2.366027869070079E+006	-2.061021338047108E+001	4.955012789173368E+001	
2.381530784477451E+006	-2.055524497292713E+001	4.916870524798860E+001	
2.397135279578482E+006	-2.058052810606632E+001	4.924882113261270E+001	
2.412842019953412E+006	-2.048738382098268E+001	4.909011139306133E+001	
2.428651675543560E+006	-2.042068557573575E+001	4.939723809967207E+001	
2.444564920679900E+006	-2.033454693068874E+001	4.884552822181235E+001	
2.460582434111821E+006	-2.026251024002175E+001	4.834289551475122E+001	
2.476704899036080E+006	-2.019966313790004E+001	4.781282456565200E+001	
2.492933003125940E+006	-2.014454955608343E+001	4.745244944537173E+001	
2.509267438560506E+006	-2.009160071640802E+001	4.703721806119973E+001	
2.525708902054241E+006	-2.002524238272914E+001	4.683221645705842E+001	
2.542258094886692E+006	-1.996306332749333E+001	4.622888962586172E+001	
2.558915722932395E+006	-1.991114187490240E+001	4.583587683461390E+001	
2.575682496690984E+006	-1.984673408604390E+001	4.550058525006451E+001	
2.592559131317500E+006	-1.980242835499625E+001	4.497283924004601E+001	
2.609546346652889E+006	-1.974333132464043E+001	4.469283613411610E+001	
2.626644867254709E+006	-1.966456920338576E+001	4.418683349205848E+001	
2.643855422428036E+006	-1.961468440552313E+001	4.357614383310769E+001	
2.661178746256564E+006	-1.957874093405120E+001	4.305284689622836E+001	
2.678615577633925E+006	-1.952674227262598E+001	4.248747287325462E+001	
2.696166660295199E+006	-1.950070494656119E+001	4.194597799413500E+001	
2.713832742848640E+006	-1.946824800373737E+001	4.147132908407529E+001	
2.731614578807603E+006	-1.944212493938335E+001	4.104464457806758E+001	
2.749512926622687E+006	-1.940602754889222E+001	4.064856730919032E+001	
2.767528549714084E+006	-1.937438004907843E+001	4.019683111399168E+001	
2.785662216504141E+006	-1.932331380308375E+001	3.983605922670751E+001	
2.803914700450135E+006	-1.928709468272136E+001	3.933386624794692E+001	
2.822286780077266E+006	-1.924738792246006E+001	3.883106163900270E+001	
2.840779239011859E+006	-1.921046642761780E+001	3.840340459246040E+001	
2.859392866014794E+006	-1.918127590851212E+001	3.789191115194291E+001	
2.878128455015144E+006	-1.915457028018275E+001	3.741447798324279E+001	
2.896986805144040E+006	-1.911492980573959E+001	3.703455180719826E+001	
2.915968720768759E+006	-1.908163215901346E+001	3.653577121522808E+001	
2.935075011527028E+006	-1.905326704030306E+001	3.616717524349419E+001	
2.954306492361563E+006	-1.901601957487850E+001	3.570563746238346E+001	
2.973663983554823E+006	-1.898487391057647E+001	3.523401224212035E+001	
2.993148310764003E+006	-1.894639358502776E+001	3.481118738903468E+001	
3.012760305056247E+006	-1.891980246466186E+001	3.429716639955804E+001	
3.032500802944099E+006	-1.888694795137196E+001	3.388956993805357E+001	
3.052370646421178E+006	-1.885533012943485E+001	3.341784454890858E+001	
3.072370682998098E+006	-1.883081464078252E+001	3.297472747535999E+001	
3.092501765738611E+006	-1.880028247739411E+001	3.254939752026944E+001	
