# Version 1.00
#
# Ref Impedances: Z01: 50, Z02: 50
# 
freq[Hz]	db:Trc9_S21	ang:Trc9_S21	
4.000000000000000E+005	-3.078004738640641E+001	1.169735378077476E+001	
4.032318620877722E+005	-3.083019150160287E+001	1.030972582973820E+001	
4.064898365069303E+005	-3.085633020478842E+001	8.858535006943658E+000	
4.097741342361089E+005	-3.089072971250162E+001	7.320660727941292E+000	
4.130849679585773E+005	-3.090590025426554E+001	5.729291868621382E+000	
4.164225520760121E+005	-3.092073080198327E+001	4.105107262708724E+000	
4.197871027223816E+005	-3.097778212006086E+001	2.357234236697919E+000	
4.231788377779421E+005	-3.106945387072936E+001	5.284065997350785E-001	
4.265979768833472E+005	-3.108628562769557E+001	-1.347486017284454E+000	
4.300447414538711E+005	-3.114527914411019E+001	-3.313436412773624E+000	
4.335193546937475E+005	-3.131037832890516E+001	-5.403721586299775E+000	
4.370220416106230E+005	-3.143496323746295E+001	-7.484676318280346E+000	
4.405530290301284E+005	-3.160273277774468E+001	-9.729335231721493E+000	
4.441125456105676E+005	-3.171181171029821E+001	-1.197138794890014E+001	
4.477008218577246E+005	-3.187849280336384E+001	-1.436401746908536E+001	
4.513180901397906E+005	-3.215057329521027E+001	-1.685102259817332E+001	
4.549645847024120E+005	-3.237846515903738E+001	-1.927015251553038E+001	
4.586405416838588E+005	-3.267503305353326E+001	-2.186150988059035E+001	
4.623461991303172E+005	-3.306508097658968E+001	-2.454407998200206E+001	
4.660817970113043E+005	-3.336196454748404E+001	-2.730452433150776E+001	
4.698475772352082E+005	-3.375325694699667E+001	-3.001498305816180E+001	
4.736437836649534E+005	-3.424784758307409E+001	-3.282125917212669E+001	
4.774706621337927E+005	-3.473691019670189E+001	-3.569309729553666E+001	
4.813284604612269E+005	-3.530471248135726E+001	-3.854582659679004E+001	
4.852174284690529E+005	-3.596171941621778E+001	-4.149451508372830E+001	
4.891378179975415E+005	-3.678625615473131E+001	-4.454935015428303E+001	
4.930898829217462E+005	-3.752529274214527E+001	-4.745102876691247E+001	
4.970738791679432E+005	-3.846156018688375E+001	-5.043210536069196E+001	
5.010900647302050E+005	-3.950554296851527E+001	-5.353185921341096E+001	
5.051386996871071E+005	-4.076540106206556E+001	-5.680782126408320E+001	
5.092200462185704E+005	-4.200324704601246E+001	-5.983387566879436E+001	
5.133343686228389E+005	-4.361593425374966E+001	-6.306564812505658E+001	
5.174819333335954E+005	-4.560968253188123E+001	-6.684670921574544E+001	
5.216630089372151E+005	-4.813558751809421E+001	-7.144853053053956E+001	
5.258778661901585E+005	-5.130117905367701E+001	-7.773159093287615E+001	
5.301267780365048E+005	-5.608815462243877E+001	-8.919213123106107E+001	
5.344100196256272E+005	-6.351816850907610E+001	-1.341634023071490E+002	
5.387278683300114E+005	-5.945142638587913E+001	1.426215224952832E+002	
5.430806037632166E+005	-5.415928107476924E+001	1.241121420119962E+002	
5.474685077979836E+005	-5.045528678453237E+001	1.161705296895991E+002	
5.518918645844874E+005	-4.816943543330751E+001	1.120816738650270E+002	
5.563509605687386E+005	-4.599773770233913E+001	1.090901320162570E+002	
5.608460845111330E+005	-4.461759541002652E+001	1.064237230928768E+002	
5.653775275051505E+005	-4.332700377718543E+001	1.039595458516577E+002	
5.699455829962062E+005	-4.219950659075957E+001	1.018706328411355E+002	
5.745505468006529E+005	-4.130817568129770E+001	1.000891572047883E+002	
5.791927171249373E+005	-4.051883267095509E+001	9.828121932873250E+001	
5.838723945849119E+005	-3.996352910409809E+001	9.657419386801924E+001	
5.885898822253012E+005	-3.938062516905637E+001	9.526821396059400E+001	
5.933454855393268E+005	-3.873163184072166E+001	9.407774551437009E+001	
5.981395124884901E+005	-3.819438420682640E+001	9.266451595606380E+001	
6.029722735225153E+005	-3.776633802607388E+001	9.135968940713829E+001	
6.078440815994534E+005	-3.737671678840729E+001	9.020877195868269E+001	
6.127552522059482E+005	-3.698697352809446E+001	8.907015753195861E+001	
6.177061033776675E+005	-3.665232022767957E+001	8.792982314831987E+001	
6.226969557198969E+005	-3.635667377932656E+001	8.684202675357928E+001	
6.277281324283027E+005	-3.607169940840730E+001	8.589919995594885E+001	
6.327999593098604E+005	-3.575084119742058E+001	8.503586881643221E+001	
6.379127648039537E+005	-3.553687657713233E+001	8.413412888357347E+001	
6.430668800036432E+005	-3.528126668204037E+001	8.333797274182169E+001	
6.482626386771075E+005	-3.504829196506235E+001	8.261826805206495E+001	
6.535003772892568E+005	-3.483453564892569E+001	8.183061148240255E+001	
6.587804350235217E+005	-3.462666662434521E+001	8.113563831074168E+001	
6.641031538038182E+005	-3.443281772053847E+001	8.046136120036198E+001	
6.694688783166894E+005	-3.422945726707696E+001	7.980570947770744E+001	
6.748779560336270E+005	-3.405931780080346E+001	7.920838919589748E+001	
6.803307372335726E+005	-3.389303644518462E+001	7.860474440371689E+001	
6.858275750256009E+005	-3.372379559549091E+001	7.798284777331720E+001	
6.913688253717858E+005	-3.356752741606884E+001	7.738537090804464E+001	
6.969548471102525E+005	-3.341125578845438E+001	7.688411097100314E+001	
7.025860019784141E+005	-3.328353232440537E+001	7.629459362552585E+001	
7.082626546363978E+005	-3.315099646630630E+001	7.581946876887166E+001	
7.139851726906585E+005	-3.301011300771130E+001	7.540195253610723E+001	
7.197539267177845E+005	-3.287459794961592E+001	7.495301483332905E+001	
7.255692902884954E+005	-3.274687588812007E+001	7.451979030007252E+001	
7.314316399918333E+005	-3.261216454107252E+001	7.407834171835641E+001	
7.373413554595498E+005	-3.249821329174208E+001	7.361903383359881E+001	
7.432988193906905E+005	-3.238752027644346E+001	7.325568594138632E+001	
7.493044175763771E+005	-3.226604129014360E+001	7.286148278425182E+001	
7.553585389247903E+005	-3.215807046916101E+001	7.246117551120867E+001	
7.614615754863553E+005	-3.206063699106605E+001	7.208566587422718E+001	
7.676139224791294E+005	-3.195687908657460E+001	7.171992567012633E+001	
7.738159783143954E+005	-3.186324953280135E+001	7.135772618195237E+001	
7.800681446224620E+005	-3.177318087923552E+001	7.107382775332918E+001	
7.863708262786723E+005	-3.167877555332333E+001	7.082137806057372E+001	
7.927244314296226E+005	-3.157585000606605E+001	7.056953841091928E+001	
7.991293715195929E+005	-3.146944734568068E+001	7.033573169910088E+001	
8.055860613171913E+005	-3.135625959714099E+001	7.001920341181982E+001	
8.120949189422132E+005	-3.126054557634959E+001	6.974639369524033E+001	
8.186563658927176E+005	-3.115854768634440E+001	6.945471908979181E+001	
8.252708270723227E+005	-3.106640602582656E+001	6.911373757353240E+001	
8.319387308177213E+005	-3.097530987000910E+001	6.885082614142652E+001	
8.386605089264191E+005	-3.088311002803797E+001	6.860515136314899E+001	
8.454365966846966E+005	-3.079601158219865E+001	6.828648070890300E+001	
8.522674328957977E+005	-3.071058043761168E+001	6.800587807701986E+001	
8.591534599083448E+005	-3.062429111179414E+001	6.777377937637542E+001	
8.660951236449849E+005	-3.054087006823842E+001	6.749901441912557E+001	
8.730928736312664E+005	-3.045316845055923E+001	6.727901317037603E+001	
8.801471630247488E+005	-3.037152681570745E+001	6.700388881641629E+001	
8.872584486443487E+005	-3.028501346836894E+001	6.682304179238564E+001	
8.944271909999218E+005	-3.019720851702756E+001	6.661207159599776E+001	
9.016538543220848E+005	-3.011038597444565E+001	6.642027366796849E+001	
9.089389065922778E+005	-3.002866130862524E+001	6.614458105583601E+001	
9.162828195730695E+005	-2.994780793235127E+001	6.589593666583964E+001	
9.236860688387074E+005	-2.987187541814917E+001	6.568877753022458E+001	
9.311491338059153E+005	-2.979111059323054E+001	6.549430686502072E+001	
9.386724977649384E+005	-2.970485504137511E+001	6.534591819380779E+001	
9.462566479108407E+005	-2.961948566971050E+001	6.513500097344954E+001	
9.539020753750543E+005	-2.953433628783321E+001	6.496604903366200E+001	
9.616092752571838E+005	-2.943835928625475E+001	6.474572237291851E+001	
9.693787466570683E+005	-2.935664866425024E+001	6.432553705258964E+001	
9.772109927071009E+005	-2.926947833753164E+001	6.409147219646032E+001	
9.851065206048116E+005	-2.917982644492314E+001	6.383207624331672E+001	
9.930658416457112E+005	-2.909262479259693E+001	6.348708408605938E+001	
1.001089471256402E+006	-2.901479527478850E+001	6.321983315361641E+001	
1.009177929027956E+006	-2.892282737268613E+001	6.292593229159991E+001	
1.017331738749560E+006	-2.883900752160923E+001	6.255871883992494E+001	
1.025551428442441E+006	-2.876593773704433E+001	6.217702959709315E+001	
1.033837530394050E+006	-2.869783826598205E+001	6.183824923721462E+001	
1.042190581192541E+006	-2.863272251851249E+001	6.153486719966050E+001	
1.050611121761515E+006	-2.855980869016367E+001	6.130273757874697E+001	
1.059099697395047E+006	-2.847579960722875E+001	6.094354010456570E+001	
1.067656857793002E+006	-2.841057155371863E+001	6.052828795778814E+001	
1.076283157096630E+006	-2.835129302617317E+001	6.008341695954070E+001	
1.084979153924451E+006	-2.830641788970625E+001	5.973911062857355E+001	
1.093745411408430E+006	-2.826746419274636E+001	5.944099005518420E+001	
1.102582497230444E+006	-2.821626842055873E+001	5.918652353130778E+001	
1.111490983659044E+006	-2.816054868913842E+001	5.901440414328003E+001	
1.120471447586515E+006	-2.809906846214001E+001	5.869222035699730E+001	
1.129524470566230E+006	-2.804852753296538E+001	5.839151522354150E+001	
1.138650638850315E+006	-2.800754312205621E+001	5.809453202811750E+001	
1.147850543427610E+006	-2.797238375550654E+001	5.787371406604572E+001	
1.157124780061941E+006	-2.793037393443450E+001	5.772980783754849E+001	
1.166473949330701E+006	-2.788880166108912E+001	5.752530363976283E+001	
1.175898656663740E+006	-2.784854254833536E+001	5.739227927406969E+001	
1.185399512382574E+006	-2.780901712299600E+001	5.722382190687190E+001	
1.194977131739907E+006	-2.776948238952094E+001	5.713942698222639E+001	
1.204632134959469E+006	-2.772903081541411E+001	5.707965835426877E+001	
1.214365147276188E+006	-2.768353951826842E+001	5.700326681732670E+001	
1.224176798976672E+006	-2.764025227026412E+001	5.697509191728158E+001	
1.234067725440030E+006	-2.758938201363740E+001	5.697165110498337E+001	
1.244038567179012E+006	-2.753457064390585E+001	5.697495915289764E+001	
1.254089969881492E+006	-2.747490681346774E+001	5.697508956335813E+001	
1.264222584452281E+006	-2.740591325466662E+001	5.706904180935474E+001	
1.274437067055272E+006	-2.733025887308959E+001	5.707267511368166E+001	
1.284734079155941E+006	-2.724175116031262E+001	5.711179231567934E+001	
1.295114287564174E+006	-2.714121685306579E+001	5.711045238935225E+001	
1.305578364477451E+006	-2.702653247591774E+001	5.705800297876591E+001	
1.316126987524377E+006	-2.692129533183557E+001	5.686720115744841E+001	
1.326760839808561E+006	-2.681645781435487E+001	5.653834088698305E+001	
1.337480609952856E+006	-2.671561567929640E+001	5.614654634008786E+001	
1.348286992143949E+006	-2.662713727351986E+001	5.577504124735218E+001	
1.359180686177315E+006	-2.654710617393666E+001	5.536813881744487E+001	
1.370162397502537E+006	-2.647753124476973E+001	5.492910343936369E+001	
1.381232837268985E+006	-2.641297601880120E+001	5.450981498710900E+001	
1.392392722371874E+006	-2.635394224904985E+001	5.411701376199042E+001	
1.403642775498683E+006	-2.629788246895134E+001	5.375215915541851E+001	
1.414983725175957E+006	-2.624761736693235E+001	5.340292771981856E+001	
1.426416305816484E+006	-2.619701570468394E+001	5.304002509814338E+001	
1.437941257766855E+006	-2.614782289138461E+001	5.271116960637053E+001	
1.449559327355405E+006	-2.610215118376278E+001	5.242911629828295E+001	
1.461271266940547E+006	-2.605636667928092E+001	5.215551996137709E+001	
1.473077834959486E+006	-2.601175245516079E+001	5.184338932635586E+001	
1.484979795977344E+006	-2.596641787696384E+001	5.162029283346907E+001	
1.496977920736661E+006	-2.591976378241634E+001	5.134963361971347E+001	
1.509072986207313E+006	-2.587384898755670E+001	5.109193384438923E+001	
1.521265775636825E+006	-2.582658806392350E+001	5.084686519867209E+001	
1.533557078601090E+006	-2.578466512756485E+001	5.056843070221831E+001	
1.545947691055504E+006	-2.573842315459651E+001	5.035807175815558E+001	
1.558438415386507E+006	-2.569328631426351E+001	5.015148576427318E+001	
1.571030060463545E+006	-2.564726891869321E+001	4.996584328275318E+001	
1.583723441691452E+006	-2.559755010660458E+001	4.975958756777261E+001	
1.596519381063248E+006	-2.554992517430038E+001	4.954302367407092E+001	
1.609418707213378E+006	-2.549850211854788E+001	4.934809124328641E+001	
1.622422255471363E+006	-2.544707388552385E+001	4.914946968898839E+001	
1.635530867915903E+006	-2.539616117318074E+001	4.894665240801981E+001	
1.648745393429399E+006	-2.534386137217542E+001	4.873832058514973E+001	
1.662066687752933E+006	-2.528942734479034E+001	4.854275851943240E+001	
1.675495613541677E+006	-2.523738849609012E+001	4.830243235667243E+001	
1.689033040420762E+006	-2.518431734912198E+001	4.809106896524149E+001	
1.702679845041588E+006	-2.513213274367097E+001	4.786332248475262E+001	
1.716436911138597E+006	-2.508107067426379E+001	4.762965939873880E+001	
1.730305129586502E+006	-2.503136313981603E+001	4.738496741499564E+001	
1.744285398457972E+006	-2.498286103002494E+001	4.711422271244553E+001	
1.758378623081800E+006	-2.494237634219671E+001	4.693283348097440E+001	
1.772585716101517E+006	-2.489887516414856E+001	4.671289069001091E+001	
1.786907597534505E+006	-2.485646113380867E+001	4.654373189217748E+001	
1.801345194831565E+006	-2.481936446665445E+001	4.633054902098598E+001	
1.815899442936981E+006	-2.476769827517030E+001	4.621108932775429E+001	
1.830571284349068E+006	-2.471638138740858E+001	4.612679687224124E+001	
1.845361669181198E+006	-2.465429040828726E+001	4.601934314266406E+001	
1.860271555223335E+006	-2.458467679662913E+001	4.588197064915112E+001	
1.875301908004053E+006	-2.450876321941302E+001	4.571449217463296E+001	
1.890453700853066E+006	-2.443390797605078E+001	4.544536557121037E+001	
1.905727914964255E+006	-2.436517904392987E+001	4.506446322789560E+001	
1.921125539459210E+006	-2.430850042646086E+001	4.470363781980606E+001	
1.936647571451283E+006	-2.425443396206870E+001	4.438715401158223E+001	
1.952295016110157E+006	-2.420134843875126E+001	4.407495312951758E+001	
1.968068886726939E+006	-2.415472177805036E+001	4.372755512789112E+001	
1.983970204779781E+006	-2.410966108826334E+001	4.336176888847741E+001	
2.000000000000000E+006	-2.406860201177041E+001	4.304636426334848E+001	
