# Version 1.00
#
# Ref Impedances: Z01: 50, Z02: 50
# 
freq[Hz]	db:Trc9_S21	ang:Trc9_S21	
6.000000000000000E+005	-4.460240866894426E+001	8.397563443530797E+001	
6.018211657010975E+005	-4.455960870638320E+001	8.410082690434334E+001	
6.036478591430463E+005	-4.451806291532439E+001	8.409352064348518E+001	
6.054800971040666E+005	-4.447010316894523E+001	8.406164594189079E+001	
6.073178964133051E+005	-4.444170394320135E+001	8.402974008534194E+001	
6.091612739509894E+005	-4.440352084402768E+001	8.396258287979541E+001	
6.110102466485833E+005	-4.435169384647300E+001	8.392694295570730E+001	
6.128648314889425E+005	-4.431134917236513E+001	8.394329470028428E+001	
6.147250455064700E+005	-4.427622731654623E+001	8.379442063417855E+001	
6.165909057872733E+005	-4.423549254390503E+001	8.384535692993786E+001	
6.184624294693206E+005	-4.419842436454474E+001	8.377522653722949E+001	
6.203396337425988E+005	-4.415371186271805E+001	8.375864212736548E+001	
6.222225358492711E+005	-4.412654158314996E+001	8.370312305732260E+001	
6.241111530838354E+005	-4.409662543711833E+001	8.364914847477853E+001	
6.260055027932832E+005	-4.404399780449364E+001	8.359856671514689E+001	
6.279056023772588E+005	-4.399958317338157E+001	8.355535493290351E+001	
6.298114692882195E+005	-4.396734012616374E+001	8.359033456597604E+001	
6.317231210315953E+005	-4.393777052880690E+001	8.343567984127951E+001	
6.336405751659502E+005	-4.388954633220986E+001	8.337913512966092E+001	
6.355638493031433E+005	-4.386030324718357E+001	8.324474799476730E+001	
6.374929611084906E+005	-4.381524282100639E+001	8.316782377876282E+001	
6.394279283009269E+005	-4.378860354011770E+001	8.311268984935245E+001	
6.413687686531694E+005	-4.376751634156345E+001	8.301568698645225E+001	
6.433154999918798E+005	-4.374459032540741E+001	8.304369588606905E+001	
6.452681401978291E+005	-4.369859290427581E+001	8.282203221960216E+001	
6.472267072060611E+005	-4.367244376261564E+001	8.272483251275297E+001	
6.491912190060576E+005	-4.363933324407355E+001	8.263101462889904E+001	
6.511616936419033E+005	-4.362252435925703E+001	8.264850758319074E+001	
6.531381492124520E+005	-4.358632064643948E+001	8.257672342265161E+001	
6.551206038714920E+005	-4.356236458094089E+001	8.242236814805303E+001	
6.571090758279137E+005	-4.353784941291526E+001	8.237834891718420E+001	
6.591035833458764E+005	-4.351280557596729E+001	8.231467319043490E+001	
6.611041447449763E+005	-4.349144924415845E+001	8.233265386515687E+001	
6.631107784004145E+005	-4.346480093753581E+001	8.226187910420822E+001	
6.651235027431659E+005	-4.343615303902798E+001	8.226847214304851E+001	
6.671423362601487E+005	-4.341005495895193E+001	8.219249931572512E+001	
6.691672974943937E+005	-4.338633767348433E+001	8.215723036609782E+001	
6.711984050452150E+005	-4.336010383126216E+001	8.216682801570028E+001	
6.732356775683812E+005	-4.333715503521585E+001	8.216737302267669E+001	
6.752791337762856E+005	-4.331083808413079E+001	8.211656475968593E+001	
6.773287924381192E+005	-4.327794959370429E+001	8.208596356173071E+001	
6.793846723800426E+005	-4.324941397171357E+001	8.201768528077422E+001	
6.814467924853590E+005	-4.321236522352866E+001	8.212957033242175E+001	
6.835151716946877E+005	-4.319358156305339E+001	8.207613220000407E+001	
6.855898290061378E+005	-4.315155436659349E+001	8.189651920682813E+001	
6.876707834754832E+005	-4.314123548556572E+001	8.197358967247044E+001	
6.897580542163372E+005	-4.311370435482191E+001	8.193362966893793E+001	
6.918516604003280E+005	-4.308063245571212E+001	8.201557032382939E+001	
6.939516212572753E+005	-4.304395619633679E+001	8.196350499958599E+001	
6.960579560753666E+005	-4.302125071784588E+001	8.191450343317148E+001	
6.981706842013340E+005	-4.299620961703026E+001	8.191775776512532E+001	
7.002898250406327E+005	-4.296689210240445E+001	8.184354357861987E+001	
7.024153980576186E+005	-4.292315103980937E+001	8.191142165021913E+001	
7.045474227757274E+005	-4.289954718811945E+001	8.184438306559939E+001	
7.066859187776536E+005	-4.286133389964768E+001	8.183020903784541E+001	
7.088309057055309E+005	-4.282337414668932E+001	8.183968495701184E+001	
7.109824032611122E+005	-4.280665431380204E+001	8.177192793493308E+001	
7.131404312059504E+005	-4.277147549928078E+001	8.167405891398491E+001	
7.153050093615806E+005	-4.273590619269864E+001	8.168562352281417E+001	
7.174761576097014E+005	-4.270155674568181E+001	8.162030564102871E+001	
7.196538958923580E+005	-4.267347889872836E+001	8.164518936084932E+001	
7.218382442121252E+005	-4.264347553991198E+001	8.160978774485862E+001	
7.240292226322910E+005	-4.262442038797638E+001	8.155017763161783E+001	
7.262268512770414E+005	-4.259338879484388E+001	8.152268372151990E+001	
7.284311503316442E+005	-4.255743662552793E+001	8.147215306502224E+001	
7.306421400426359E+005	-4.252434916320440E+001	8.143381357385053E+001	
7.328598407180060E+005	-4.248868619332147E+001	8.149122683758428E+001	
7.350842727273849E+005	-4.247254481977695E+001	8.147967083981803E+001	
7.373154565022304E+005	-4.241517385480850E+001	8.143365084590391E+001	
7.395534125360152E+005	-4.239314031606568E+001	8.133658687441680E+001	
7.417981613844155E+005	-4.235408379904324E+001	8.139607473858369E+001	
7.440497236654996E+005	-4.232653685849470E+001	8.138865223206609E+001	
7.463081200599173E+005	-4.229910438585406E+001	8.139103477592028E+001	
7.485733713110901E+005	-4.225604280044315E+001	8.137485206025249E+001	
7.508454982254012E+005	-4.220716023331286E+001	8.120683559485200E+001	
7.531245216723870E+005	-4.218200125557316E+001	8.130279153279844E+001	
7.554104625849290E+005	-4.215543608405656E+001	8.124065586603325E+001	
7.577033419594454E+005	-4.210340234258091E+001	8.131197616919999E+001	
7.600031808560845E+005	-4.204269470185626E+001	8.131019446852123E+001	
7.623100003989179E+005	-4.199578617095889E+001	8.118462170238614E+001	
7.646238217761348E+005	-4.195602107070738E+001	8.114723696413094E+001	
7.669446662402360E+005	-4.190075710386626E+001	8.104832051405531E+001	
7.692725551082300E+005	-4.185925695777434E+001	8.086119831686291E+001	
7.716075097618278E+005	-4.180743767389470E+001	8.087248195586528E+001	
7.739495516476402E+005	-4.176054222457434E+001	8.075200385032235E+001	
7.762987022773742E+005	-4.171173075062997E+001	8.057874385129135E+001	
7.786549832280310E+005	-4.166315000080939E+001	8.052407420248336E+001	
7.810184161421035E+005	-4.161654908447598E+001	8.029960766111947E+001	
7.833890227277760E+005	-4.157264108146980E+001	8.015021806563684E+001	
7.857668247591228E+005	-4.151697662862802E+001	8.002821980288626E+001	
7.881518440763088E+005	-4.145290340381788E+001	7.982402396470837E+001	
7.905441025857895E+005	-4.141671776843128E+001	7.961547862192782E+001	
7.929436222605130E+005	-4.136021839688475E+001	7.933822311998635E+001	
7.953504251401210E+005	-4.133192836277083E+001	7.921419178726822E+001	
7.977645333311518E+005	-4.126892937817851E+001	7.882818469495611E+001	
8.001859690072431E+005	-4.123521981844935E+001	7.862138996137804E+001	
8.026147544093354E+005	-4.121547773318832E+001	7.838566430177245E+001	
8.050509118458772E+005	-4.114944894996991E+001	7.808441906207052E+001	
8.074944636930288E+005	-4.111420735656218E+001	7.775773378186479E+001	
8.099454323948685E+005	-4.108880519161816E+001	7.732651461682808E+001	
8.124038404635986E+005	-4.105788158922466E+001	7.707068035758215E+001	
8.148697104797522E+005	-4.103403774616683E+001	7.665499737343818E+001	
8.173430650924004E+005	-4.100035747417572E+001	7.638457316356339E+001	
8.198239270193606E+005	-4.098346944285144E+001	7.612152440893894E+001	
8.223123190474050E+005	-4.094735737556351E+001	7.574410110036482E+001	
8.248082640324701E+005	-4.095520732267590E+001	7.537942894670857E+001	
8.273117848998662E+005	-4.092559542363568E+001	7.498231520514788E+001	
8.298229046444885E+005	-4.091153429332947E+001	7.458626553511503E+001	
8.323416463310279E+005	-4.091816520236855E+001	7.461127737410544E+001	
8.348680330941830E+005	-4.086809366820874E+001	7.398292434362708E+001	
8.374020881388726E+005	-4.088009756696769E+001	7.337822109027633E+001	
8.399438347404491E+005	-4.087360723142442E+001	7.321044245563890E+001	
8.424932962449117E+005	-4.089499892714666E+001	7.282529966450197E+001	
8.450504960691213E+005	-4.088431670076915E+001	7.238746282731081E+001	
8.476154577010154E+005	-4.089766521646899E+001	7.195152013420776E+001	
8.501882046998239E+005	-4.083261548249788E+001	7.203282425100375E+001	
8.527687606962854E+005	-4.084844025407040E+001	7.122675808298381E+001	
8.553571493928646E+005	-4.084860292360558E+001	7.078959653822990E+001	
8.579533945639692E+005	-4.091496533266088E+001	7.063566376985068E+001	
8.605575200561693E+005	-4.090309467936324E+001	7.001674499268057E+001	
8.631695497884156E+005	-4.091957796989196E+001	6.948573380647777E+001	
8.657895077522595E+005	-4.097765242384960E+001	6.903328001912662E+001	
8.684174180120736E+005	-4.102293375039024E+001	6.894644359594231E+001	
8.710533047052723E+005	-4.107094890512444E+001	6.851854717635766E+001	
8.736971920425337E+005	-4.112343317315440E+001	6.816368085627757E+001	
8.763491043080221E+005	-4.118509400589460E+001	6.804319977496272E+001	
8.790090658596108E+005	-4.112720487120426E+001	6.788107046649728E+001	
8.816771011291061E+005	-4.122168727073172E+001	6.743618986876292E+001	
8.843532346224717E+005	-4.130359079383720E+001	6.717157889143766E+001	
8.870374909200535E+005	-4.136037946706112E+001	6.703696674316583E+001	
8.897298946768054E+005	-4.140378697992810E+001	6.663001847098903E+001	
8.924304706225161E+005	-4.144456592257139E+001	6.666504134394864E+001	
8.951392435620361E+005	-4.154809421003701E+001	6.657171506642455E+001	
8.978562383755052E+005	-4.158298750502016E+001	6.620731755041463E+001	
9.005814800185816E+005	-4.167380844930104E+001	6.645705685784029E+001	
9.033149935226707E+005	-4.171186410967123E+001	6.626007915451247E+001	
9.060568039951549E+005	-4.181265836407150E+001	6.619087881545792E+001	
9.088069366196248E+005	-4.188143592353739E+001	6.612169899890849E+001	
9.115654166561100E+005	-4.193347735026044E+001	6.605195672869992E+001	
9.143322694413111E+005	-4.205002354435244E+001	6.621282169246963E+001	
9.171075203888330E+005	-4.212492399243846E+001	6.653039880290959E+001	
9.198911949894175E+005	-4.218975820901733E+001	6.678988252381797E+001	
9.226833188111779E+005	-4.223022201305408E+001	6.702956282412924E+001	
9.254839174998340E+005	-4.232577984489440E+001	6.741601408045226E+001	
9.282930167789473E+005	-4.235414816143843E+001	6.710399909075288E+001	
9.311106424501574E+005	-4.248594800539540E+001	6.781192355410050E+001	
9.339368203934191E+005	-4.254438264869725E+001	6.819358545920676E+001	
9.367715765672399E+005	-4.259191185142959E+001	6.872195932030256E+001	
9.396149370089187E+005	-4.260362578355487E+001	6.891222417721723E+001	
9.424669278347845E+005	-4.269873802548182E+001	6.914390041354621E+001	
9.453275752404368E+005	-4.276079894194584E+001	6.987443392423690E+001	
9.481969055009860E+005	-4.277054390266271E+001	7.023480447532521E+001	
9.510749449712946E+005	-4.287980178199003E+001	7.109516447353764E+001	
9.539617200862194E+005	-4.291408182066632E+001	7.213857722697127E+001	
9.568572573608543E+005	-4.284314634343949E+001	7.315538675791146E+001	
9.597615833907739E+005	-4.290990274798651E+001	7.288770709155641E+001	
9.626747248522777E+005	-4.296059197380149E+001	7.358876456115256E+001	
9.655967085026350E+005	-4.294668097332229E+001	7.478903124822338E+001	
9.685275611803311E+005	-4.286403769978848E+001	7.584789152343581E+001	
9.714673098053130E+005	-4.277733551080713E+001	7.568055285812869E+001	
9.744159813792377E+005	-4.284127074772081E+001	7.644439569184509E+001	
9.773736029857196E+005	-4.280879334598013E+001	7.715555052738503E+001	
9.803402017905789E+005	-4.270533634555935E+001	7.793697803508776E+001	
9.833158050420921E+005	-4.271535179467165E+001	7.845463266855724E+001	
9.863004400712416E+005	-4.262318943420678E+001	7.828402421966787E+001	
9.892941342919667E+005	-4.263008739909190E+001	7.921002797342531E+001	
9.922969152014158E+005	-4.250161654611524E+001	7.922549703777523E+001	
9.953088103801985E+005	-4.254300192982046E+001	7.971638383766947E+001	
9.983298474926394E+005	-4.243534089928977E+001	8.094739917887820E+001	
1.001360054287032E+006	-4.238103524060084E+001	8.067822246790503E+001	
1.004399458595893E+006	-4.227984863828938E+001	8.098162106211522E+001	
1.007448088336219E+006	-4.214265218101062E+001	8.090705844630890E+001	
1.010505971509743E+006	-4.215903292075394E+001	8.186168996511336E+001	
1.013573136203189E+006	-4.208008873774822E+001	8.189537075060602E+001	
1.016649610588534E+006	-4.190410917564581E+001	8.204777774756909E+001	
1.019735422923264E+006	-4.199550516748917E+001	8.163348749263905E+001	
1.022830601550633E+006	-4.182587867962172E+001	8.211735937979162E+001	
1.025935174899928E+006	-4.189706119693041E+001	8.169103607756055E+001	
1.029049171486724E+006	-4.178501767138485E+001	8.222079196582486E+001	
1.032172619913148E+006	-4.177671085153429E+001	8.216908779186026E+001	
1.035305548868144E+006	-4.171643655948436E+001	8.313603777408883E+001	
1.038447987127735E+006	-4.147301033273277E+001	8.263271684497515E+001	
1.041599963555286E+006	-4.147934434704267E+001	8.172687592201048E+001	
1.044761507101771E+006	-4.153240627746605E+001	8.127634160458595E+001	
1.047932646806039E+006	-4.153241676435137E+001	8.160301445894881E+001	
1.051113411795078E+006	-4.160835813861904E+001	8.145798141134139E+001	
1.054303831284286E+006	-4.157353236586046E+001	8.240479916134099E+001	
1.057503934577737E+006	-4.146303480806517E+001	8.234674375767227E+001	
1.060713751068451E+006	-4.142144938127991E+001	8.146828835937748E+001	
1.063933310238665E+006	-4.140916779594243E+001	8.249146397190374E+001	
1.067162641660101E+006	-4.146683896827053E+001	8.179418516501882E+001	
1.070401774994241E+006	-4.149606284662294E+001	8.218660796854516E+001	
1.073650739992596E+006	-4.149455069527853E+001	8.262988616903994E+001	
1.076909566496984E+006	-4.144490841848334E+001	8.270596829994841E+001	
1.080178284439797E+006	-4.133963393737197E+001	8.275841052590771E+001	
1.083456923844284E+006	-4.143503710896243E+001	8.323633179686058E+001	
1.086745514824820E+006	-4.135219050883616E+001	8.352132710635368E+001	
1.090044087587188E+006	-4.135342320933835E+001	8.378903462167118E+001	
1.093352672428851E+006	-4.129457916490235E+001	8.367498746098408E+001	
1.096671299739235E+006	-4.127489585873430E+001	8.394937504299681E+001	
1.100000000000000E+006	-4.125382178452499E+001	8.387163848389704E+001	
